"Time (s)","Linear Acceleration x (m/s^2)","Linear Acceleration y (m/s^2)","Linear Acceleration z (m/s^2)","Absolute acceleration (m/s^2)"
1.043875003E-3,-3.452669746E-1,-4.360467517E-1,-2.057050467E-1,5.930097973E-1
1.099087496E-2,-8.740227923E-1,-2.306831825E-1,-1.233785892E-1,9.123337374E-1
2.093687491E-2,-1.636819556E0,1.833102107E-2,-1.911367089E-1,1.648043545E0
3.088287497E-2,-2.313901401E0,1.860613257E-1,-3.289093888E-1,2.344555373E0
4.082887492E-2,-2.781904940E0,3.005673498E-1,-2.162177557E-1,2.806436521E0
5.077487498E-2,-2.837647032E0,2.106897980E-1,2.636591399E-1,2.857647111E0
6.072087493E-2,-2.494022248E0,-2.078106290E-1,7.087924647E-1,2.601099573E0
7.066787500E-2,-2.276436828E0,-5.839625967E-1,9.756780982E-1,2.544626633E0
8.061387495E-2,-2.039973673E0,-8.289632714E-1,1.274433981E0,2.544180549E0
9.055987501E-2,-1.451434753E0,-9.239933896E-1,1.346778949E0,2.185003470E0
1.005058750E-1,-6.587443918E-1,-8.836411697E-1,1.153825510E0,1.595643819E0
1.104518749E-1,-1.388959301E-1,-8.362933409E-1,7.923117542E-1,1.160360525E0
1.203978750E-1,4.325653195E-1,-6.179863751E-1,5.651667219E-1,9.425674188E-1
1.303448749E-1,9.140352890E-1,-4.109487480E-1,3.004205847E-1,1.046227466E0
1.402908750E-1,1.071730894E0,-1.481380391E-1,-3.244619966E-3,1.081925375E0
1.502368749E-1,1.183567665E0,1.551412493E-1,-1.188721400E-1,1.199596520E0
1.601828750E-1,1.056782195E0,2.964064711E-1,-3.234387338E-2,1.098039858E0
1.701288749E-1,5.570759296E-1,2.788192159E-1,-1.394268572E-2,6.231116634E-1
1.800758749E-1,7.186169565E-2,2.431395060E-1,-7.531798482E-3,2.536486757E-1
1.900218750E-1,-3.997551307E-1,9.299821079E-2,1.095089936E-1,4.247882430E-1
1.999678749E-1,-7.651651785E-1,-2.366081661E-1,2.595137563E-1,8.419076935E-1
2.099138750E-1,-1.020775041E0,-5.383554840E-1,3.339511505E-1,1.201387399E0
2.198599583E-1,-1.142457061E0,-9.315789825E-1,3.599522567E-1,1.517436379E0
2.298059583E-1,-1.184112917E0,-1.183549538E0,3.255870008E-1,1.705555571E0
2.397529583E-1,-1.181051315E0,-1.280412174E0,2.658816665E-1,1.762109703E0
2.496989582E-1,-1.155986348E0,-1.244816079E0,1.738418144E-1,1.707657016E0
2.596449583E-1,-1.126618708E0,-1.122203475E0,-3.494237602E-2,1.590544348E0
2.695909583E-1,-1.058836907E0,-9.244243294E-1,-2.072533894E-1,1.420791999E0
2.795369583E-1,-9.457783610E-1,-6.510892171E-1,-2.738356340E-1,1.180423581E0
2.894839583E-1,-8.172053978E-1,-4.228548485E-1,-2.640421325E-1,9.572612667E-1
2.994299583E-1,-7.557005829E-1,-2.267211092E-1,-3.001954669E-1,8.441582497E-1
3.093759583E-1,-7.187508577E-1,8.145639181E-2,-3.172523797E-1,7.898651857E-1
3.193219583E-1,-5.888812745E-1,2.290067858E-1,-3.628834659E-1,7.286354872E-1
3.292679583E-1,-4.633029628E-1,8.710480213E-2,-4.338712952E-1,6.406880541E-1
3.392139582E-1,-4.157884884E-1,-4.116030514E-2,-3.351659095E-1,5.356402008E-1
3.491609583E-1,-4.585158473E-1,-8.723987281E-2,-1.678232753E-1,4.959961990E-1
3.591069583E-1,-5.515131810E-1,-1.165016788E-1,-1.477948076E-1,5.827372780E-1
3.690529583E-1,-5.748543888E-1,-2.645689666E-1,-2.340146336E-1,6.746978251E-1
3.789989583E-1,-6.621056637E-1,-4.697343153E-1,-3.711464587E-1,8.926275431E-1
3.889449583E-1,-7.216633558E-1,-6.408875799E-1,-5.320393217E-1,1.102089256E0
3.988919583E-1,-7.790049532E-1,-6.850439984E-1,-6.305771846E-1,1.213985825E0
4.088379582E-1,-9.148790422E-1,-6.198452049E-1,-7.265329170E-1,1.322521009E0
4.187839583E-1,-1.016087913E0,-4.300510168E-1,-8.565413716E-1,1.396796924E0
4.287299583E-1,-1.066547922E0,-1.337854636E-1,-9.811610323E-1,1.455369366E0
4.386759583E-1,-1.000146942E0,1.785803980E-1,-1.066393264E0,1.472881345E0
4.486219583E-1,-8.411810285E-1,4.234647131E-1,-1.144866114E0,1.482439309E0
4.585689583E-1,-5.930164254E-1,6.229015446E-1,-1.156233686E0,1.441024341E0
4.685149583E-1,-3.157698181E-1,7.781474590E-1,-1.132317989E0,1.409740428E0
4.784609583E-1,-5.950243592E-2,9.451199645E-1,-1.204447487E0,1.532150788E0
4.884069583E-1,1.782161164E-1,1.115651085E0,-1.384040330E0,1.786618584E0
4.983529582E-1,4.220420855E-1,1.131761919E0,-1.588192357E0,1.995334439E0
5.082989583E-1,6.343290505E-1,9.644607997E-1,-1.626129969E0,1.994205770E0
5.182459583E-1,8.145826292E-1,6.473469990E-1,-1.560284766E0,1.875391038E0
5.281919583E-1,9.412052536E-1,2.077235055E-1,-1.521775880E0,1.801337896E0
5.381379583E-1,9.576245275E-1,-2.234162629E-1,-1.458383877E0,1.758932373E0
5.480839583E-1,8.443493423E-1,-5.284099549E-1,-1.351051509E0,1.678535991E0
5.580299583E-1,6.824571902E-1,-7.658525187E-1,-1.292612974E0,1.650189746E0
5.679759583E-1,4.042183104E-1,-9.467109919E-1,-1.330085440E0,1.681898161E0
5.779229583E-1,1.310556909E-1,-1.064400825E0,-1.399877222E0,1.763457101E0
5.878689582E-1,-1.570605978E-1,-1.068588016E0,-1.324089705E0,1.708731087E0
5.978149583E-1,-3.736394191E-1,-1.121223482E0,-1.177083687E0,1.668015143E0
6.077609583E-1,-5.369486439E-1,-1.062454872E0,-9.424211821E-1,1.518315476E0
6.177069583E-1,-5.767716908E-1,-9.180882865E-1,-8.787850571E-1,1.395641380E0
6.276539583E-1,-6.356338567E-1,-7.927374315E-1,-8.952739128E-1,1.354244592E0
6.375999583E-1,-5.917142504E-1,-7.525272989E-1,-8.548749152E-1,1.283446224E0
6.475459583E-1,-4.664347315E-1,-6.365571320E-1,-7.323473883E-1,1.076614619E0
6.574919582E-1,-3.258220589E-1,-5.159056842E-1,-6.067184982E-1,8.604801131E-1
6.674379583E-1,-6.243773818E-2,-5.573267752E-1,-4.883673450E-1,7.436492918E-1
6.773849583E-1,1.264097857E-1,-6.171817982E-1,-3.645312113E-1,7.278569983E-1
6.873309583E-1,3.311114502E-1,-6.332037538E-1,-3.576072308E-1,7.990398725E-1
6.972769583E-1,7.361434007E-1,-7.663202959E-1,-4.788366759E-1,1.165520684E0
7.072229583E-1,1.128617871E0,-1.060857997E0,-5.935938379E-1,1.658780164E0
7.171689583E-1,1.458895508E0,-1.299945382E0,-8.477082753E-1,2.129986718E0
7.271149583E-1,1.787096214E0,-1.618109343E0,-9.855563843E-1,2.604479240E0
7.370619583E-1,2.007829775E0,-2.017077146E0,-1.015634754E0,3.021836291E0
7.470079582E-1,2.201184332E0,-2.398634280E0,-1.068283961E0,3.426352214E0
7.569539583E-1,2.472190499E0,-2.788252385E0,-1.001356584E0,3.858599776E0
7.668999583E-1,2.864488383E0,-3.200869929E0,-8.092217557E-1,4.371006960E0
7.768459583E-1,3.185685879E0,-3.607956591E0,-4.070490937E-1,4.830283040E0
7.867919583E-1,3.437206199E0,-3.895101657E0,-2.261046664E-1,5.199742945E0
7.967389583E-1,3.622420263E0,-4.070272543E0,-1.663918038E-1,5.451305658E0
8.066849583E-1,3.840979829E0,-4.252585804E0,-1.322101506E-1,5.731936112E0
8.166309583E-1,4.095956438E0,-4.459905267E0,-1.880500368E-1,6.058298189E0
8.265769583E-1,4.212369239E0,-4.592847562E0,-1.060100198E-1,6.232940033E0
8.365229582E-1,4.301255688E0,-4.580703480E0,-7.205173016E-2,6.284014347E0
8.464699583E-1,4.268889011E0,-4.259248121E0,-3.202402155E-2,6.030392482E0
8.564159583E-1,4.251225742E0,-3.799748772E0,-1.023960751E-2,5.701851970E0
8.663619583E-1,4.194220067E0,-3.210773942E0,-9.788476545E-2,5.283004136E0
8.763079583E-1,3.855092084E0,-2.191520054E0,-1.776859201E-2,4.434502322E0
8.862539583E-1,3.238977402E0,-1.169237309E0,1.531479335E-1,3.446961675E0
8.961999583E-1,2.451386690E-2,-3.953401905E-1,7.435829593E-1,8.425024708E-1
9.061469582E-1,-3.131356475E0,6.417319179E-3,-1.623771787E-2,3.131405151E0
9.160929583E-1,-3.440862463E0,2.600315273E-1,-3.325729617E-1,3.466663477E0
9.260389582E-1,-2.257577804E0,5.591674787E-1,4.107999364E-1,2.361796434E0
9.359849583E-1,-1.849776027E0,1.132910897E0,8.352238852E-1,2.324383228E0
9.459309583E-1,-1.528662731E0,1.259755715E0,1.344920996E0,2.394286259E0
9.558779583E-1,-1.648628300E0,5.796859431E-1,2.771825218E0,3.276740164E0
9.658239583E-1,-7.692614454E-1,6.882938808E-1,3.782629879E0,3.920943820E0
9.757699583E-1,-7.435635173E-1,1.578927151E0,3.788848978E0,4.171483457E0
9.857159583E-1,-1.291772729E0,1.712551816E0,3.980868616E0,4.522037754E0
9.956619582E-1,-1.415139624E0,2.066552777E0,5.374709172E0,5.929650851E0
1.005607958E0,-2.184672965E0,3.034556404E0,6.423406715E0,7.432461393E0
1.015554958E0,-3.337364407E0,4.276126694E0,6.497164078E0,8.463829024E0
1.025500958E0,-5.038400717E0,6.011984342E0,5.978530083E0,9.862669997E0
1.035446958E0,-6.758235240E0,8.229891127E0,5.286089357E0,1.188896935E1
1.045392958E0,-7.748624933E0,1.051570046E1,4.353415775E0,1.376856468E1
1.055338958E0,-9.174563195E0,1.267637879E1,3.838263212E0,1.611196616E1
1.065285958E0,-1.086797883E1,1.448515063E1,3.648413183E0,1.847277649E1
1.075231958E0,-1.225429753E1,1.571911896E1,3.429294039E0,2.022420743E1
1.085177958E0,-1.361974400E1,1.729254154E1,3.026327033E0,2.221909257E1
1.095123958E0,-1.376055665E1,1.800763262E1,1.936048771E0,2.274590154E1
1.105069958E0,-1.365330000E1,1.789158995E1,6.480135816E-1,2.251536172E1
1.115015958E0,-1.220141531E1,1.615515518E1,-6.013533124E-1,2.025401689E1
1.124962958E0,-1.069764944E1,1.408886495E1,-2.340827537E0,1.784419492E1
1.134908958E0,-9.204766987E0,1.166348550E1,-3.598423290E0,1.528768392E1
1.144854958E0,-7.258880861E0,8.857365194E0,-3.403505187E0,1.194688734E1
1.154800958E0,-5.636221799E0,7.113144273E0,-1.932951793E0,9.279015048E0
1.164746958E0,-4.077437137E0,6.600002568E0,-3.557237257E0,8.534603939E0
1.174692958E0,-1.708746156E0,6.305393531E0,-1.047375487E1,1.234412176E1
1.184639958E0,-1.474242110E0,3.999387918E0,-9.350501236E0,1.027620391E1
1.194585958E0,-1.312917430E0,1.731339505E0,-4.479271830E0,4.978470125E0
1.204531958E0,-1.871507789E0,7.066020977E-1,-2.850637498E0,3.482522373E0
1.214477958E0,-2.237011100E0,8.078174007E-1,-5.646267316E-1,2.444502190E0
1.224424375E0,-3.231394148E0,1.487052190E0,5.888210481E-1,3.605543314E0
1.234371375E0,-3.937161849E0,1.990708542E0,1.601956995E0,4.693658502E0
1.244317375E0,-4.248391011E0,1.508222619E0,2.330562165E0,5.074946469E0
1.254263375E0,-3.405178660E0,-1.225181129E0,2.124118030E0,4.196211138E0
1.264209375E0,-9.296295208E-1,-4.694149404E0,1.831629778E0,5.123877176E0
1.274155375E0,1.245420097E0,-6.471593034E0,2.110737554E0,6.920101202E0
1.284101375E0,2.571974403E0,-7.162008870E0,2.492451686E0,8.007605059E0
1.294048375E0,4.074947977E0,-7.616595388E0,2.035643810E0,8.874771661E0
1.303994375E0,5.030929729E0,-7.500721115E0,5.477006502E-1,9.048262109E0
1.313940375E0,6.017367289E0,-7.405830161E0,1.007383163E-1,9.542807641E0
1.323886375E0,6.713541462E0,-7.237853104E0,-2.747758663E-1,9.875913036E0
1.333832375E0,6.876369461E0,-6.864860972E0,-7.719575965E-1,9.747137614E0
1.343779375E0,6.743859276E0,-6.322270934E0,-1.091726618E0,9.308201475E0
1.353725375E0,7.243923098E0,-5.808447443E0,-2.727356558E0,9.677342474E0
1.363671375E0,1.010378984E1,-5.763072465E0,-9.784497954E0,1.519986755E1
1.373617375E0,1.170378217E1,-6.468105755E0,-1.003201293E1,1.671694328E1
1.383563375E0,1.390005017E1,-7.133266296E0,-8.428984727E0,1.775225806E1
1.393509375E0,1.760210015E1,-7.996273227E0,-1.024652155E1,2.188071112E1
1.403456375E0,1.825531366E1,-8.487033545E0,-1.031327453E1,2.261967831E1
1.413402375E0,1.761467517E1,-9.709485778E0,-9.708645533E0,2.233402547E1
1.423348375E0,1.720614308E1,-9.940722692E0,-9.354680825E0,2.196313686E1
1.433294375E0,1.693444870E1,-9.896691989E0,-9.439266647E0,2.176740269E1
1.443240375E0,1.645514073E1,-9.545661414E0,-8.850143883E0,2.098133349E1
1.453187375E0,1.540770794E1,-8.547066323E0,-7.304927099E0,1.907385034E1
1.463133375E0,1.354652517E1,-7.471417210E0,-5.650641618E0,1.646997784E1
1.473079375E0,1.187548215E1,-6.755543182E0,-4.297972476E0,1.432260477E1
1.483025375E0,1.062378975E1,-6.157609833E0,-3.180102665E0,1.268440461E1
1.492971375E0,1.007924323E1,-5.647218658E0,-2.746061801E0,1.187531381E1
1.502917375E0,9.706141756E0,-5.316922309E0,-2.901224685E0,1.144097703E1
1.512864375E0,9.434514030E0,-5.014915375E0,-2.946141826E0,1.108328394E1
1.522810375E0,9.193964256E0,-4.644754757E0,-3.116902742E0,1.076186825E1
1.532756375E0,8.879056025E0,-4.120237586E0,-3.425561762E0,1.037055770E1
1.542702375E0,8.526415712E0,-3.504004206E0,-2.957138684E0,9.681037112E0
1.552648375E0,8.107194323E0,-3.418239586E0,6.130907938E-1,8.819684914E0
1.562594375E0,8.134814231E0,-3.574723063E0,2.152029422E0,9.142487527E0
1.572541375E0,3.388841540E0,-5.393701513E0,1.475981774E1,1.607571095E1
1.582487375E0,1.641142695E0,-8.956362648E0,2.520583108E1,2.680006906E1
1.592433375E0,5.418742214E0,-1.224843511E1,4.492201076E1,4.687615578E1
1.602379375E0,6.893215874E0,-1.725682441E1,5.855714697E1,6.143495646E1
1.612325375E0,6.671898762E0,-7.153896443E0,-1.080277302E1,1.457368767E1
1.622272375E0,6.008188915E0,-3.489511882E0,-3.631902108E0,7.840008937E0
1.632218375E0,4.735359410E0,-2.386382901E0,6.457349217E-1,5.341856015E0
1.642164375E0,4.003748186E0,-1.870025227E0,3.625752007E0,5.716036346E0
1.652110375E0,3.587452744E0,-1.573518184E0,8.512748430E0,9.370841077E0
1.662056375E0,3.082227584E0,-1.030572343E0,1.178540229E1,1.222529809E1
1.672002375E0,3.335790921E0,-1.030312727E0,7.211175182E0,8.011871997E0
1.681949375E0,-1.316594744E0,-2.214127437E0,4.243496892E0,4.964176457E0
1.691895375E0,-9.351107592E0,-4.493364497E0,3.054653285E0,1.081501014E1
1.701841375E0,-1.402581793E1,-6.018070709E0,3.239377352E0,1.560238152E1
1.711787375E0,-1.889052710E1,-4.158245949E0,1.142045417E0,1.937646230E1
1.721733375E0,-1.688799140E1,3.252864247E0,3.349349445E-1,1.720167319E1
1.731680375E0,2.010066335E0,1.152092337E1,6.511373397E0,1.338544080E1
1.741626375E0,5.897749044E0,7.099014477E0,9.443816366E0,1.320473846E1
1.751572375E0,-1.227749226E0,5.144665675E0,6.191381596E0,8.142982202E0
1.761518375E0,-6.491130336E0,4.404455536E0,1.848784339E0,8.059280684E0
1.771464375E0,-1.037808039E1,4.908047569E0,3.590833604E0,1.202861461E1
1.781410375E0,-1.531343679E1,5.493723400E0,6.658564187E0,1.757893115E1
1.791357375E0,-1.699595673E1,5.446376156E0,5.491885035E0,1.867314541E1
1.801303375E0,-1.633594641E1,5.314583423E0,3.682378197E0,1.756894565E1
1.811249375E0,-1.336861778E1,5.351508590E0,2.221377692E0,1.457028155E1
1.821195375E0,-1.166283763E1,5.000028949E0,1.756284896E0,1.281041013E1
1.831141375E0,-7.859265947E0,3.708552089E0,1.740580444E0,8.862902465E0
1.841087375E0,-1.407201444E0,1.121529291E0,2.341617495E0,2.953170559E0
1.851034375E0,1.326135646E0,1.069479132E-1,2.873463274E0,3.166522508E0
1.860980375E0,1.904262722E0,1.839545739E-1,2.081236889E0,2.826942304E0
1.870926375E0,2.487409632E0,1.749969319E-1,8.620099801E-1,2.638350206E0
1.880872375E0,2.389782765E0,1.366789582E-1,-4.332932979E-1,2.432588309E0
1.890818375E0,2.353264564E0,1.187750763E-1,-9.851973653E-1,2.553933334E0
1.900765375E0,2.180267673E0,-8.428761363E-4,-1.226599663E0,2.501622387E0
1.910711375E0,2.534650456E0,-5.000012577E-2,-1.470303426E0,2.930656089E0
1.920657375E0,2.851215788E0,-2.871336642E-1,-1.670291650E0,3.316888814E0
1.930603375E0,3.272180232E0,-6.593899244E-1,-1.772933673E0,3.779583621E0
1.940549375E0,3.816461869E0,-1.007363283E0,-1.863745610E0,4.365055518E0
1.950495375E0,4.136133826E0,-1.343472348E0,-1.938627977E0,4.761386291E0
1.960442375E0,4.552124628E0,-1.621279703E0,-2.090919294E0,5.265199901E0
1.970388375E0,5.086886998E0,-1.748412497E0,-2.041761752E0,5.753447371E0
1.980334375E0,5.501624157E0,-1.765575537E0,-1.895728126E0,6.081028735E0
1.990280375E0,5.957874209E0,-1.836057875E0,-1.916723138E0,6.522361627E0
2.000226375E0,6.336883126E0,-2.046102140E0,-2.060923077E0,6.970654607E0
2.010173375E0,6.646042959E0,-2.394399142E0,-2.202109362E0,7.399481056E0
2.020119375E0,6.852634444E0,-2.837727139E0,-2.231061265E0,7.745251997E0
2.030065375E0,6.865580764E0,-3.289204985E0,-1.849063252E0,7.834162595E0
2.040011375E0,6.714343700E0,-3.751903346E0,-1.934489318E0,7.931042741E0
2.049957375E0,6.624167941E0,-4.202543871E0,-2.264306195E0,8.165051037E0
2.059903375E0,6.280285002E0,-4.692205204E0,-2.481421498E0,8.222908369E0
2.069850375E0,5.527702739E0,-5.057220565E0,-2.596815130E0,7.929339584E0
2.079796375E0,4.808217471E0,-5.126126493E0,-2.307705399E0,7.397407132E0
2.089742375E0,4.448906069E0,-4.739256579E0,-1.758349548E0,6.733877878E0
2.099688375E0,4.168568916E0,-4.326952154E0,-1.371822281E0,6.162903384E0
2.109634375E0,3.627160016E0,-3.991360568E0,-1.351835913E0,5.560099756E0
2.119580375E0,3.166477776E0,-3.726147238E0,-1.464883057E0,5.104570218E0
2.129527375E0,2.727744813E0,-3.424906289E0,-1.667299629E0,4.685132112E0
2.139473375E0,2.406454931E0,-3.117059740E0,-1.922510127E0,4.382137829E0
2.149419375E0,2.169855536E0,-2.649492988E0,-2.170640232E0,4.054598026E0
2.159365375E0,2.180795676E0,-2.102875973E0,-2.357936490E0,3.838987057E0
2.169311375E0,2.432468609E0,-1.773212878E0,-2.597932532E0,3.976234511E0
2.179258375E0,2.913803800E0,-1.719422879E0,-2.749559020E0,4.359672284E0
2.189204375E0,3.781902485E0,-1.775628363E0,-2.604727582E0,4.923438663E0
2.199150375E0,3.891620225E0,-1.906074774E0,-2.447427540E0,4.976718857E0
2.209096375E0,3.873312008E0,-1.943452807E0,-2.253330971E0,4.884368453E0
2.219041958E0,4.075933818E0,-2.036141700E0,-1.960605907E0,4.960149699E0
2.228987958E0,4.282777317E0,-2.225863675E0,-1.770360898E0,5.141092137E0
2.238934958E0,4.625508354E0,-2.499928813E0,-1.745204130E0,5.539919590E0
2.248880958E0,4.929418557E0,-2.779146809E0,-1.804614765E0,5.939651399E0
2.258826958E0,5.052271482E0,-2.854381471E0,-1.823137282E0,6.082497041E0
2.268772958E0,5.097268145E0,-2.818717548E0,-1.687557893E0,6.064252864E0
2.278718958E0,4.980188177E0,-2.548916493E0,-1.217937598E0,5.725611020E0
2.288664958E0,4.627945474E0,-2.212376488E0,-4.970451978E-1,5.153595149E0
2.298611958E0,4.199605352E0,-1.924684122E0,2.438686538E-1,4.626074578E0
2.308557958E0,3.690240948E0,-1.763691564E0,8.169829112E-1,4.170844910E0
2.318503958E0,3.452090871E0,-1.555040106E0,9.995581269E-1,3.915890392E0
2.328449958E0,3.530117871E0,-1.406338395E0,8.102498424E-1,3.885360301E0
2.338395958E0,3.835637813E0,-1.216693895E0,2.457868329E-1,4.031485165E0
2.348342958E0,3.977021148E0,-1.118189069E0,-3.628556916E-1,4.147132535E0
2.358288958E0,3.937137290E0,-1.376310311E0,-5.058309317E-1,4.201326582E0
2.368234958E0,3.717937455E0,-1.918587815E0,-2.256919992E-1,4.189865750E0
2.378180958E0,3.519644923E0,-2.338244529E0,2.360333848E-1,4.232138894E0
2.388126958E0,3.178401418E0,-2.639298367E0,7.941056800E-1,4.206986484E0
2.398072958E0,2.858362840E0,-2.717241752E0,1.523946659E0,4.228008312E0
2.408019958E0,2.619453794E0,-2.506540844E0,2.183639177E0,4.232323858E0
2.417965958E0,2.351333814E0,-1.551902197E0,3.260909139E0,4.309373452E0
2.427911958E0,1.654632806E0,-7.581827259E-1,4.002544829E0,4.396932553E0
2.437857958E0,7.294758207E-1,1.273871478E-1,3.603517092E0,3.678817458E0
2.447803958E0,1.605089933E-1,1.546158477E0,3.918600155E0,4.215660843E0
2.457749958E0,-1.341995634E0,3.354441785E0,4.102325518E0,5.466471131E0
2.467696958E0,-3.571163571E0,5.056458088E0,3.614660131E0,7.168454890E0
2.477642958E0,-6.165391892E0,6.535033570E0,2.528845048E0,9.333476213E0
2.487588958E0,-8.836680084E0,7.639301881E0,1.950601906E-2,1.168102002E1
2.497534958E0,-1.492130965E1,7.265506926E0,-1.120489949E0,1.663395835E1
2.507480958E0,-1.773800348E1,6.092765965E0,-5.095395282E-1,1.876214793E1
2.517427958E0,-1.987594900E1,6.783132684E0,1.581257559E0,2.106097370E1
2.527373958E0,-2.217760955E1,7.646961148E0,2.506231819E0,2.359244748E1
2.537319958E0,-1.833223963E1,8.306109583E0,1.238203755E0,2.016421620E1
2.547265958E0,-1.441622716E1,7.667483121E0,-1.395133960E-1,1.632903448E1
2.557211958E0,-1.211900465E1,5.476160703E0,-1.296947223E0,1.336191161E1
2.567157958E0,-1.056187709E1,2.933153113E0,-2.300966190E0,1.120049464E1
2.577104958E0,-1.001483498E1,9.360921559E-1,-2.618382000E0,1.039370543E1
2.587050958E0,-9.427869839E0,-1.305905449E-1,-1.860996834E0,9.610675981E0
2.596996958E0,-8.254404409E0,-9.219217211E-2,-6.472551978E-1,8.280255481E0
2.606942958E0,-7.019414576E0,3.063093156E-2,3.395595074E-2,7.019563537E0
2.616888958E0,-5.439577013E0,3.159674540E-1,1.569883847E-1,5.451007143E0
2.626835958E0,-3.490248047E0,8.872047552E-1,-3.988116825E-1,3.623260198E0
2.636781958E0,-1.598592507E0,1.175748475E0,-1.345717971E0,2.397673735E0
2.646727958E0,1.643710792E-1,9.417358884E-1,-2.198453683E0,2.397307433E0
2.656673958E0,1.443736017E0,5.436904836E-1,-2.774165858E0,3.174266724E0
2.666619958E0,2.491120859E0,2.154698968E-1,-2.945730182E0,3.863862927E0
2.676565958E0,3.445448434E0,1.044555375E-1,-2.895907812E0,4.502033754E0
2.686512958E0,4.157377346E0,1.177602920E-1,-2.653771688E0,4.933574571E0
