"Time (s)","Linear Acceleration x (m/s^2)","Linear Acceleration y (m/s^2)","Linear Acceleration z (m/s^2)","Absolute acceleration (m/s^2)"
6.927833310E-3,-2.145627013E-1,-2.016149193E-1,-2.935711563E-2,2.958843840E-1
1.687483327E-2,3.063831367E-2,4.324425280E-2,-1.228345057E-1,1.337799965E-1
2.682083333E-2,2.949141155E-1,2.534785527E-1,-2.593991509E-1,4.674544167E-1
3.676783328E-2,5.418458332E-1,2.854160446E-1,-3.864889678E-1,7.241774284E-1
4.671383335E-2,8.285668302E-1,2.859346926E-1,-4.522587419E-1,9.863161816E-1
5.666083330E-2,1.070271722E0,2.188033944E-1,-4.647197431E-1,1.187148231E0
6.660683325E-2,1.155330656E0,9.090724647E-2,-4.243309781E-1,1.234143359E0
7.655383332E-2,1.057297043E0,-4.803136826E-2,-2.125480431E-1,1.079518744E0
8.649983327E-2,8.275190091E-1,-1.214250344E-1,7.857488394E-3,8.364170548E-1
9.644683334E-2,5.041019100E-1,-1.540068895E-1,8.773805559E-2,5.343545865E-1
1.063928333E-1,1.885213955E-1,-2.248219335E-1,-4.060394257E-2,2.961990859E-1
1.163388334E-1,2.460223295E-2,-2.980261499E-1,-2.608784965E-1,3.968405798E-1
1.262858333E-1,-8.471826106E-2,-3.245263159E-1,-4.467565119E-1,5.586464843E-1
1.362318333E-1,-2.037803625E-1,-3.156215912E-1,-5.725502935E-1,6.848045441E-1
1.461788333E-1,-2.561423980E-1,-2.557811862E-1,-5.035566571E-1,6.201630836E-1
1.561248333E-1,-2.275166228E-1,-1.708497941E-1,-2.513805717E-1,3.796651915E-1
1.660718333E-1,-9.896405183E-2,-8.708433688E-2,6.473744810E-3,1.319828574E-1
1.760178333E-1,1.449249941E-1,2.563419342E-3,9.234507680E-2,1.718645928E-1
1.859648332E-1,4.206508137E-1,8.664813459E-2,2.188817471E-2,4.300396475E-1
1.959108333E-1,7.022903609E-1,1.111900681E-1,-1.107953811E-1,7.196183702E-1
2.058578333E-1,8.905302130E-1,1.052305859E-1,-2.223652259E-1,9.238851823E-1
2.158038333E-1,9.910983753E-1,5.621747017E-2,-2.701922339E-1,1.028805247E0
2.257508333E-1,9.628437522E-1,-5.249045491E-2,-3.157929146E-1,1.014666696E0
2.356968333E-1,8.831178439E-1,-1.143873256E-1,-2.788934755E-1,9.331469108E-1
2.456438333E-1,7.701572388E-1,-1.543881279E-1,-2.317807049E-1,8.189628574E-1
2.555898333E-1,6.440278271E-1,-1.557914597E-1,-1.954490304E-1,6.908278689E-1
2.655358333E-1,5.913032643E-1,-1.511850232E-1,-9.997364670E-2,6.184587226E-1
2.754828333E-1,5.927097389E-1,-1.579531753E-1,-2.152652442E-2,6.137731107E-1
2.854288333E-1,5.286499831E-1,-1.249585068E-1,3.065870583E-2,5.440821531E-1
2.953758333E-1,4.829864448E-1,-9.698074937E-2,1.221717238E-2,4.927782777E-1
3.053218334E-1,4.676708329E-1,-3.275727153E-2,-6.300667226E-2,4.730315925E-1
3.152688333E-1,5.903305800E-1,1.084798837E-1,-1.439183959E-1,6.172281454E-1
3.252148333E-1,6.265762272E-1,2.353217787E-1,-2.277519733E-1,7.069972202E-1
3.351618333E-1,6.023898044E-1,2.928887862E-1,-2.764996254E-1,7.246442992E-1
3.451078333E-1,4.923697641E-1,2.840168059E-1,-3.100515336E-1,6.474762422E-1
3.550548333E-1,4.213689248E-1,2.606571794E-1,-3.129257324E-1,5.860174485E-1
3.650008333E-1,3.825090605E-1,2.155178440E-1,-2.585755706E-1,5.095315968E-1
3.749478332E-1,4.384055185E-1,1.510867900E-1,-1.103410524E-1,4.766568626E-1
3.848938333E-1,5.440677021E-1,7.337320089E-2,2.916211098E-2,5.497669686E-1
3.948398333E-1,6.610798428E-1,3.154222012E-2,1.647871086E-1,6.820383137E-1
4.047868333E-1,6.824557284E-1,8.420575261E-3,1.592734766E-1,7.008457516E-1
4.147328333E-1,5.980672503E-1,2.328887522E-2,-2.735385954E-2,5.991452588E-1
4.246798333E-1,4.509646799E-1,4.991826475E-2,-3.050153267E-1,5.467132020E-1
4.346258333E-1,2.878341606E-1,-1.725104034E-2,-5.227282155E-1,5.969848320E-1
4.445728333E-1,1.370714526E-1,-9.174515247E-2,-5.674047437E-1,5.908924600E-1
4.545188333E-1,2.316783786E-2,-1.139084387E-1,-4.900305855E-1,5.036286885E-1
4.644658333E-1,-2.376893163E-2,-1.009211880E-1,-3.506855893E-1,3.656917156E-1
4.744118333E-1,-7.606613606E-2,-3.848637342E-2,-2.612056482E-1,2.747647151E-1
4.843588333E-1,-6.529044852E-2,1.347607791E-2,-2.135447010E-1,2.237091565E-1
4.943048334E-1,-1.470092341E-2,6.074087620E-2,-2.183534512E-1,2.271206746E-1
5.042518333E-1,7.690265335E-2,1.471299791E-1,-2.292649403E-1,2.830612332E-1
5.141978333E-1,4.759436198E-2,1.190645134E-1,-2.768700466E-1,3.051206390E-1
5.241448333E-1,-1.153921697E-1,1.869120955E-2,-3.856846833E-1,4.030104082E-1
5.340908333E-1,-3.397492495E-1,-1.583063471E-1,-5.446225297E-1,6.611385271E-1
5.440368333E-1,-7.791960841E-1,-3.623449373E-1,-6.640685740E-1,1.086014485E0
5.539838333E-1,-1.215682766E0,-4.157346940E-1,-7.161169794E-1,1.470898858E0
5.639298332E-1,-1.523915377E0,-3.585582805E-1,-6.094994339E-1,1.679991570E0
5.738768333E-1,-1.672817647E0,-3.309184921E-1,-4.190123507E-1,1.755960500E0
5.838228333E-1,-1.755913013E0,-3.417457813E-1,-1.664904025E-1,1.796591145E0
5.937698333E-1,-1.738599992E0,-3.541395396E-1,8.553628653E-2,1.776361788E0
6.037158333E-1,-1.526558026E0,-2.662775230E-1,2.999627477E-1,1.578372825E0
6.136628333E-1,-1.211121426E0,-1.056112397E-1,3.670212480E-1,1.269910799E0
6.236088333E-1,-8.431822380E-1,1.001136875E-1,2.609255666E-1,8.882911619E-1
6.335558333E-1,-3.695694646E-1,3.462364429E-1,2.557455182E-2,5.070654014E-1
6.435018333E-1,1.359743688E-1,5.311435282E-1,-2.482061183E-1,6.018378135E-1
6.534488333E-1,3.565262268E-1,5.754168910E-1,-5.147394571E-1,8.503953537E-1
6.633948333E-1,4.065580738E-1,4.792237616E-1,-7.531704926E-1,9.809233772E-1
6.733418333E-1,2.984272689E-1,1.958805549E-1,-8.461347896E-1,9.183529326E-1
6.832878334E-1,1.113657770E-1,-1.466820824E-1,-8.888662416E-1,9.077450991E-1
6.932338333E-1,-1.288679552E-1,-3.352898705E-1,-9.917310441E-1,1.054778039E0
7.031808333E-1,-4.242612500E-1,-2.378126925E-1,-1.169719996E0,1.266805966E0
7.131268333E-1,-5.746330717E-1,-5.804764867E-2,-1.405656025E0,1.519684690E0
7.230738333E-1,-4.929367979E-1,6.537245572E-2,-1.605873167E0,1.681097521E0
7.330198333E-1,-2.382455327E-1,1.485572845E-1,-1.869903605E0,1.890864800E0
7.429668333E-1,3.796268217E-1,3.989075768E-1,-2.068563927E0,2.140607506E0
7.529128332E-1,5.283289710E-1,7.803892815E-1,-2.075114855E0,2.279087667E0
7.628598333E-1,5.645893094E-1,1.094048547E0,-1.859285354E0,2.229942900E0
7.728058333E-1,7.436711061E-1,1.733189564E0,-1.372822155E0,2.332730899E0
7.827528333E-1,9.173567998E-1,2.661845523E0,-9.382068014E-1,2.967692216E0
7.926988333E-1,1.090870732E0,3.441237854E0,-3.308673289E-1,3.625133117E0
8.026458333E-1,1.224619065E0,3.634514644E0,5.671489280E-1,3.876989355E0
8.125918333E-1,1.270543097E0,3.765610973E0,1.701987652E0,4.323293621E0
8.225388333E-1,1.101855165E0,4.258807241E0,2.508335062E0,5.063918316E0
8.324848333E-1,1.288485278E0,5.045349548E0,2.454146284E0,5.756611881E0
8.424308333E-1,2.193499044E0,5.772225696E0,2.604314768E0,6.701677623E0
8.523778333E-1,3.154979518E0,5.952129904E0,2.384135232E0,7.146037151E0
8.623238333E-1,3.750661982E0,5.536838429E0,1.245185623E0,6.802538668E0
8.722708334E-1,4.435508929E0,4.820664439E0,6.359180313E-1,6.581560365E0
8.822168333E-1,4.936699510E0,4.217169219E0,7.584481895E-1,6.536877078E0
8.921638333E-1,4.530297849E0,3.228200984E0,8.621976757E-1,5.629233077E0
9.021098333E-1,3.611946146E0,1.883129715E0,5.703023314E-1,4.113098252E0
9.120568333E-1,3.092969212E0,6.020035958E-1,4.180469754E-1,3.178620793E0
9.220028333E-1,2.638180964E0,-7.007443571E-1,9.689169627E-1,2.896522317E0
9.319498333E-1,2.337731436E0,-1.323372252E0,1.813371847E0,3.241083128E0
9.418958332E-1,1.941677593E0,-1.119758754E0,2.043914112E0,3.033406738E0
9.518428333E-1,1.513651174E0,-9.624476033E-1,1.574275106E0,2.386584877E0
9.617888333E-1,8.007995725E-1,-1.306799489E0,1.145945217E0,1.913686312E0
9.717358333E-1,-1.788595660E-1,-1.988210027E0,1.185517419E0,2.321728108E0
9.816818333E-1,-1.030584915E0,-2.773332045E0,1.886557353E0,3.508927834E0
9.916278333E-1,-1.132920252E0,-3.250356084E0,3.041184808E0,4.593161004E0
1.001574833E0,-1.078453438E0,-3.591215428E0,3.707376798E0,5.273000359E0
1.011520833E0,-1.184216413E0,-3.865820555E0,3.576708485E0,5.398127515E0
1.021467833E0,-1.269793630E0,-3.917391243E0,2.966131702E0,5.075063279E0
1.031413833E0,-1.485420817E0,-4.154451399E0,2.225747316E0,4.941648768E0
1.041360833E0,-2.056092400E0,-4.773699603E0,1.842114421E0,5.514445520E0
1.051306833E0,-2.912321823E0,-5.767498807E0,2.066379114E0,6.783478719E0
1.061253833E0,-3.588649085E0,-7.005947853E0,2.914310753E0,8.393742595E0
1.071199833E0,-3.783946964E0,-8.254328980E0,3.852505276E0,9.863772019E0
1.081146833E0,-3.364599861E0,-9.385640078E0,4.690773806E0,1.101880805E1
1.091092833E0,-1.920486991E0,-1.040366313E1,5.777172441E0,1.205405318E1
1.101039833E0,-2.991426757E-1,-1.172146181E1,6.974697409E0,1.364289402E1
1.110985833E0,2.441268449E-1,-1.426003517E1,7.869658788E0,1.628925199E1
1.120932833E0,-3.458809322E-1,-1.766321993E1,8.373508099E0,1.955056546E1
1.130878833E0,-9.398580551E-1,-2.042206725E1,8.256466722E0,2.204797965E1
1.140824833E0,-1.174883965E-1,-2.212598097E1,7.279605147E0,2.329303520E1
1.150771833E0,2.538662523E0,-2.231486241E1,5.249873457E0,2.306423775E1
1.160717833E0,4.514032357E0,-2.099578435E1,3.610543984E0,2.177694829E1
1.170664833E0,4.661589183E0,-2.019289616E1,3.314257965E0,2.098732414E1
1.180610833E0,4.163376296E0,-1.894096519E1,4.808275651E0,1.998032480E1
1.190557833E0,2.374881282E0,-1.802893286E1,5.603215436E0,1.902836053E1
1.200503833E0,8.052971046E-1,-1.613073487E1,5.708862344E0,1.713009691E1
1.210450833E0,3.783617766E-1,-1.276598737E1,6.232247787E0,1.421106975E1
1.220396833E0,4.660168017E-1,-7.936240448E0,6.843296440E0,1.048960391E1
1.230343833E0,2.835167228E-1,-6.004447281E-1,7.461820174E0,7.491306690E0
1.240289833E0,-6.276067990E-1,6.521602516E0,8.300195709E0,1.057442379E1
1.250236833E0,-2.919808306E0,9.960397403E0,1.007389186E1,1.446437327E1
1.260182833E0,-5.823126878E0,1.008863737E1,1.035147673E1,1.558340403E1
1.270128833E0,-7.388393179E0,1.079592125E1,8.741009111E0,1.573357905E1
1.280075833E0,-7.028675981E0,1.303118783E1,6.800795953E0,1.629309572E1
1.290021833E0,-4.224303991E0,1.686603978E1,3.826590416E0,1.780311311E1
1.299968833E0,-3.073942664E0,2.183758226E1,-1.413058892E0,2.209809625E1
1.309914833E0,4.132305362E0,2.344292830E1,-9.197273780E0,2.551933933E1
1.319861833E0,1.210449420E1,2.184022521E1,-2.097407013E1,3.261021059E1
1.329807833E0,1.143710704E1,2.040438527E1,-1.697101718E1,2.889916573E1
1.339754833E0,1.020095419E1,1.368573568E1,-9.501137205E0,1.953536372E1
1.349700833E0,4.457274604E0,9.889264855E0,-6.629780098E0,1.271293988E1
1.359647833E0,-2.271198893E0,5.425202218E0,-6.530762179E0,8.788743833E0
1.369593833E0,-6.030643392E0,4.166675588E0,-4.415124366E0,8.557053719E0
1.379540833E0,-7.829901230E0,4.955788915E0,-5.136887709E0,1.059503716E1
1.389486833E0,-8.394230631E0,4.109172900E0,-5.528963984E0,1.085899869E1
1.399433833E0,-9.004914418E0,2.372344029E0,-5.910713491E0,1.102964341E1
1.409379833E0,-9.670336915E0,1.023308347E0,-5.995323871E0,1.142394347E1
1.419325833E0,-8.635049377E0,-1.492818130E0,-4.543960161E0,9.871178129E0
1.429272833E0,-9.041501616E0,-8.861959936E0,6.261198521E-3,1.266029718E1
1.439218833E0,-1.416987578E1,-2.382896850E1,2.354889506E0,2.782356239E1
1.449165833E0,-5.703087634E0,-2.303664505E1,9.298131233E-1,2.375030055E1
1.459111833E0,1.273174841E1,-6.552124397E0,-2.163797235E-1,1.432042499E1
1.469058833E0,1.650131386E1,6.340720069E0,-8.061855013E0,1.942914296E1
1.479004833E0,9.405255733E0,1.241224018E1,-1.336646133E1,2.052278807E1
1.488951833E0,4.268810073E0,1.222351310E1,-1.184140458E1,1.754582214E1
1.498897833E0,1.438490041E0,1.370863338E1,-1.059309420E1,1.738417463E1
1.508844833E0,-1.711569192E0,1.908051600E1,-1.123807600E1,2.221013085E1
1.518790833E0,-4.530539047E0,2.692181580E1,-1.222810434E1,2.991381764E1
1.528737833E0,-5.516589521E0,3.310337992E1,-7.127635428E0,3.430844952E1
1.538682875E0,-1.205041564E0,3.286226413E1,5.611358854E0,3.335967442E1
1.548629875E0,5.348016633E0,3.251542835E1,1.163340041E1,3.494553430E1
1.558575875E0,6.819142177E0,2.799686615E1,4.964338129E0,2.923986778E1
1.568522875E0,1.943135011E0,2.009309120E1,-5.468081605E0,2.091430143E1
1.578468875E0,9.039788821E-1,1.505142540E1,-6.921076688E0,1.659107853E1
1.588414875E0,1.865120875E0,1.316385297E1,-4.130132244E0,1.392205780E1
1.598361875E0,1.770263542E0,1.170165145E1,4.377652484E-1,1.184289314E1
1.608307875E0,-3.901905477E-2,7.151225435E0,5.127573094E0,8.799633716E0
1.618254875E0,1.610864643E0,-2.004997383E0,6.850936412E0,7.317802206E0
1.628200875E0,3.849776380E0,-1.275850995E1,9.174938586E0,1.617961224E1
1.638147875E0,-1.177281323E0,-2.715957294E1,1.595580021E1,3.152167435E1
1.648093875E0,-6.846200752E0,-4.886034439E1,2.390442799E1,5.482358431E1
1.658040875E0,4.997366127E0,-5.626539863E1,1.463665433E1,5.835238128E1
1.667986875E0,1.547210450E1,-2.439351249E1,-1.437625443E1,3.226617673E1
1.677933875E0,1.086951782E1,-1.016705087E0,-2.020681019E1,2.296726551E1
1.687879875E0,4.866799555E0,5.762862550E0,-1.194768708E1,1.412952757E1
1.697826875E0,-1.756025572E-1,6.734601964E0,-3.964933784E0,7.817058256E0
1.707772875E0,-4.177083047E0,3.229035382E0,4.370016021E-1,5.297703529E0
1.717718875E0,-5.816278034E0,5.587008709E-1,4.165166422E0,7.175642700E0
1.727665875E0,-7.203525270E0,-1.071241482E0,7.584943825E0,1.051521314E1
1.737611875E0,-1.082399841E1,-4.538892379E0,8.949319677E0,1.475976993E1
1.747558875E0,-1.350981050E1,-9.381922418E0,9.526466174E0,1.900760389E1
1.757504875E0,-9.657608696E0,-1.182523352E1,9.383852584E0,1.792100005E1
1.767451875E0,-5.388940126E-1,-9.911219981E0,7.477286645E0,1.242708750E1
1.777397875E0,3.161261474E0,-7.312334937E0,4.592941702E0,9.195592956E0
1.787344875E0,4.278723735E0,-5.772437950E0,1.280953626E0,7.298586088E0
1.797290875E0,5.916050245E0,-4.911126713E0,-3.307986242E-1,7.695988813E0
1.807237875E0,5.312861418E0,-3.837176215E0,1.580560863E-1,6.555562484E0
1.817183875E0,4.284256663E0,-3.750336292E0,-4.742957282E-1,5.713565777E0
1.827130875E0,3.335608488E0,-4.333093777E0,-6.506500912E-1,5.506844034E0
1.837076875E0,2.378101636E0,-5.149301932E0,-5.383285868E-1,5.697409539E0
1.847023875E0,1.709760209E0,-5.780956174E0,1.346362334E0,6.177007835E0
1.856969875E0,6.406395118E-1,-5.595718136E0,3.628727070E0,6.700010492E0
1.866915875E0,-6.745909309E-1,-5.227542356E0,4.521740742E0,6.944667835E0
1.876862875E0,-1.315790314E0,-4.952924364E0,3.708256220E0,6.325656337E0
1.886808875E0,-1.159275407E0,-4.768644100E0,2.162281637E0,5.362774273E0
1.896755875E0,-9.588521504E-1,-4.422070858E0,1.183603333E0,4.677074403E0
1.906701875E0,-1.102497920E0,-3.896537148E0,8.942310619E-1,4.147065541E0
1.916648875E0,-1.191734617E0,-3.286700038E0,8.614030391E-1,3.600644905E0
1.926594875E0,-1.154083811E0,-2.781990017E0,8.645886022E-1,3.133511026E0
1.936541875E0,-9.848593962E-1,-2.389576943E0,8.472282189E-1,2.719893684E0
1.946487875E0,-5.516403580E-1,-2.054814491E0,6.112123758E-1,2.213628299E0
1.956434875E0,9.533885121E-3,-1.694675124E0,5.315879166E-2,1.695535469E0
1.966380875E0,5.106233096E-1,-1.369547714E0,-6.762246430E-1,1.610489638E0
1.976327875E0,8.911674133E-1,-1.153215938E0,-1.224539105E0,1.903570954E0
1.986273875E0,9.945525449E-1,-1.048722101E0,-1.323614327E0,1.959823384E0
1.996220875E0,9.206411809E-1,-9.297248304E-1,-1.024863707E0,1.662021077E0
2.006166875E0,7.488967627E-1,-7.780463022E-1,-5.200683171E-1,1.198613142E0
2.016112875E0,6.774853027E-1,-4.898662788E-1,5.594148159E-2,8.379049802E-1
2.026059875E0,5.665583593E-1,-1.169390506E-1,5.154390764E-1,7.748164670E-1
2.036005875E0,4.763045391E-1,2.668254071E-1,6.619574368E-1,8.580498004E-1
2.045952875E0,4.698994991E-1,6.320272940E-1,5.774207318E-1,9.765647655E-1
2.055898875E0,4.766492325E-1,8.124729538E-1,2.325788498E-2,9.422567170E-1
2.065845875E0,4.464878324E-1,9.020961517E-1,-6.801130414E-1,1.214776770E0
2.075791875E0,3.971054649E-1,1.003264092E0,-1.417712983E0,1.781612105E0
2.085738875E0,3.450778171E-1,1.122054371E0,-2.060547686E0,2.371485079E0
2.095684875E0,3.870447457E-1,1.312066661E0,-2.578144970E0,2.918587679E0
2.105631875E0,4.456926110E-1,1.627136275E0,-2.978286894E0,3.422923777E0
2.115577875E0,5.320559862E-1,2.159379079E0,-3.116790476E0,3.828888148E0
2.125524875E0,6.176659477E-1,2.964130200E0,-2.964469923E0,4.237412063E0
2.135470875E0,6.885499889E-1,3.920134172E0,-2.521247469E0,4.711501015E0
2.145416875E0,8.516200626E-1,4.905823873E0,-1.960465574E0,5.351241899E0
2.155363875E0,1.060804495E0,5.921490494E0,-1.480126748E0,6.195169976E0
2.165309875E0,1.161943784E0,6.866860719E0,-1.101038893E0,7.050969872E0
2.175256875E0,1.294931395E0,7.802404699E0,-6.929266298E-1,7.939427795E0
2.185202875E0,1.534271673E0,8.584163398E0,-3.403746092E-1,8.726838241E0
2.195149875E0,1.581307260E0,9.106845421E0,7.874474555E-2,9.243449946E0
2.205095875E0,1.580697980E0,9.255565842E0,3.201853430E-1,9.395031869E0
2.215042875E0,1.468092301E0,9.037696248E0,5.863739884E-1,9.174915963E0
2.224988875E0,1.354375944E0,8.557066231E0,7.442219138E-1,8.695492105E0
2.234935875E0,1.248545141E0,7.941640937E0,7.662138766E-1,8.075618208E0
2.244881875E0,1.084628975E0,7.108627884E0,5.825697899E-1,7.214457565E0
2.254828875E0,1.013900470E0,6.049735136E0,-4.711744845E-2,6.134289644E0
2.264774875E0,8.846878213E-1,4.775187719E0,-7.421350425E-1,4.912825533E0
2.274721875E0,7.010028040E-1,3.333409935E0,-1.317143798E0,3.652108228E0
2.284667875E0,3.072328833E-1,1.945975004E0,-1.665753626E0,2.579911995E0
2.294613875E0,-1.341205182E-1,1.015984125E0,-1.528192615E0,1.839995849E0
2.304560875E0,-9.209013820E-1,4.965432143E-1,-1.249806678E0,1.629917559E0
2.314506875E0,-1.617974272E0,1.169261867E-1,-1.263891451E0,2.056437229E0
2.324453875E0,-1.837530496E0,-2.509139639E-1,-1.572387040E0,2.431435203E0
2.334399875E0,-1.484541688E0,-1.981001580E-1,-1.477513627E0,2.103842726E0
2.344346875E0,-1.087161112E0,5.222177535E-1,-1.154517528E0,1.669593180E0
2.354292875E0,-6.447636992E-1,1.424792792E0,-1.083555134E0,1.902589408E0
2.364239875E0,2.923879356E-1,2.361294546E0,-1.013968590E0,2.586374864E0
2.374185875E0,1.685498503E0,2.799152765E0,-1.365170488E0,3.541165326E0
2.384132875E0,2.200311928E0,2.946741750E0,-1.602659830E0,4.011630348E0
2.394078875E0,1.563310700E0,3.160373867E0,-1.910237991E0,4.010101309E0
2.404025875E0,1.269417947E0,3.000552506E0,-3.415817669E0,4.720439346E0
2.413971875E0,2.763060095E-1,3.534608533E0,-3.217254412E0,4.787538871E0
2.423918875E0,-4.520920962E-1,3.873659917E0,-2.438352662E0,4.599477375E0
2.433864875E0,-8.687200986E-1,3.773348009E0,-1.741757489E0,4.245768359E0
2.443810875E0,-8.625328673E-1,3.633322982E0,-1.613604063E0,4.068011420E0
2.453757875E0,-9.258041261E-1,3.079692816E0,-2.105735554E0,3.843922911E0
2.463703875E0,-1.047242755E0,2.368616429E0,-2.403343043E0,3.533145759E0
2.473650875E0,-7.690936303E-1,1.296974412E0,-2.506037107E0,2.924699919E0
2.483596875E0,-3.049289341E-1,-2.059769422E-1,-2.582219895E0,2.608307447E0
2.493543875E0,-1.365646452E-1,-1.675212666E0,-2.001000227E0,2.613233493E0
2.503489875E0,-3.785943496E-1,-2.497022454E0,-8.748317546E-1,2.672786078E0
2.513436875E0,-1.488491190E0,-2.181947578E0,-8.342222571E-2,2.642623795E0
2.523382875E0,-2.474199310E0,-9.560454869E-1,-2.745080638E-1,2.666653310E0
2.533329875E0,-2.912795155E0,3.979474640E-1,-8.221734846E-1,3.052655735E0
2.543276458E0,-2.385913370E0,1.473904726E0,-1.591588712E0,3.224613524E0
2.553223458E0,-1.901061663E0,1.947492941E0,-2.157977502E0,3.473273830E0
2.563169458E0,-1.598596600E0,2.109851409E0,-2.221180640E0,3.455521305E0
2.573115458E0,-1.338275051E0,2.032396266E0,-1.801656366E0,3.027801241E0
2.583062458E0,-1.193195690E0,1.883623804E0,-1.157369800E0,2.512222013E0
2.593008458E0,-8.688582391E-1,2.006742193E0,2.657056653E-1,2.202845516E0
2.602955458E0,-1.070111508E0,1.982967414E0,1.206361281E0,2.555896309E0
2.612901458E0,-8.840355644E-1,2.062037557E0,1.085585287E0,2.492391057E0
2.622848458E0,-6.175454950E-1,2.312108352E0,2.070900182E0,3.164780408E0
2.632794458E0,-8.199304926E-1,2.492495540E0,4.056340967E0,4.831016671E0
2.642741458E0,-8.056305420E-1,1.795627302E0,6.041342043E0,6.353828110E0
2.652687458E0,-9.991336191E-1,-2.007068467E-1,7.542229915E0,7.610767590E0
2.662634458E0,-2.374746065E0,-3.083507540E0,8.729581897E0,9.557878306E0
2.672580458E0,-2.304055567E0,-5.986826697E0,9.170023416E0,1.119107213E1
2.682527458E0,6.528866512E-1,-8.052353872E0,9.667530836E0,1.259872281E1
