"Time (s)","Linear Acceleration x (m/s^2)","Linear Acceleration y (m/s^2)","Linear Acceleration z (m/s^2)","Absolute acceleration (m/s^2)"
1.403204167E-2,1.712703727E1,8.761729304E0,2.313846145E0,1.937671773E1
2.397004167E-2,1.480935769E1,9.463688128E0,2.574058936E0,1.776243923E1
3.390804167E-2,1.234907387E1,9.996523840E0,3.015531904E0,1.617168968E1
4.384604167E-2,1.014171488E1,1.019767741E1,3.166473098E0,1.472662749E1
5.378404167E-2,8.039660736E0,1.026221430E1,3.118244094E0,1.340420208E1
6.372304167E-2,6.071661610E0,1.031936382E1,2.962438601E0,1.233411476E1
7.366104167E-2,4.546304895E0,1.036673562E1,2.697328767E0,1.163673829E1
8.359904167E-2,3.366324497E0,1.036514752E1,2.346028635E0,1.114774749E1
9.353704167E-2,2.315025528E0,1.032362410E1,2.032606766E0,1.077348820E1
1.034750417E-1,1.245644045E0,1.022391738E1,1.824970969E0,1.045995386E1
1.134130417E-1,1.690646392E-1,9.966186147E0,1.464521699E0,1.007463513E1
1.233510417E-1,-1.069323596E0,9.563157452E0,1.082671620E0,9.683471033E0
1.332900417E-1,-2.272741388E0,9.034144650E0,9.275087357E-1,9.361698319E0
1.432280417E-1,-3.361512823E0,8.479359074E0,8.958800498E-1,9.165255034E0
1.531660417E-1,-4.304264665E0,7.982296042E0,1.061042769E0,9.130693083E0
1.631040417E-1,-5.048620480E0,7.535519650E0,1.187789354E0,9.147866893E0
1.730420417E-1,-5.534398971E0,7.137364610E0,1.171771638E0,9.107392289E0
1.829800417E-1,-5.818601133E0,6.840990883E0,1.150844307E0,9.054265184E0
1.929180417E-1,-5.795896395E0,6.671035128E0,1.132763547E0,8.909448802E0
2.028560417E-1,-5.568663654E0,6.405820044E0,1.205587109E0,8.573096617E0
2.127950417E-1,-5.502820498E0,6.096970698E0,1.230655292E0,8.304733444E0
2.227330417E-1,-5.707647877E0,5.815521405E0,1.330551317E0,8.256385426E0
2.326710417E-1,-5.825900213E0,5.598045913E0,1.500561597E0,8.217719662E0
2.426090417E-1,-5.725762551E0,5.446515319E0,1.753453820E0,8.094657882E0
2.525470417E-1,-5.466879417E0,5.368077845E0,2.225245625E0,7.978392595E0
2.624850417E-1,-4.729475942E0,5.523275812E0,3.073320228E0,7.894290063E0
2.724230417E-1,-2.705810153E0,6.137327596E0,4.178551283E0,7.902435664E0
2.823620417E-1,6.345567995E-1,7.302708666E0,5.132102348E0,8.948222767E0
2.923000417E-1,4.361289636E0,8.649672679E0,5.949656532E0,1.136820556E1
3.022380417E-1,7.845486984E0,9.817051742E0,6.598518544E0,1.419389368E1
3.121760417E-1,1.080191815E1,1.058515719E1,7.190770154E0,1.674616864E1
3.221140417E-1,1.355022412E1,1.054179892E1,7.740480931E0,1.883223681E1
3.320520417E-1,1.541905622E1,9.907344446E0,8.051228868E0,2.001811817E1
3.419900417E-1,1.667619121E1,9.063382482E0,7.686672513E0,2.047743123E1
3.519280417E-1,1.785448937E1,8.632852578E0,7.030133107E0,2.104119069E1
3.618670417E-1,1.939782218E1,8.484012873E0,5.997430623E0,2.200507109E1
3.718050417E-1,2.120639171E1,8.027408481E0,4.682614017E0,2.315334123E1
3.817430417E-1,2.229404398E1,6.876334963E0,3.817588627E0,2.364069294E1
3.916810417E-1,2.173960632E1,4.784935613E0,3.800144044E0,2.258201024E1
4.016190417E-1,1.984407232E1,2.167294748E0,3.974253076E0,2.035384633E1
4.115570417E-1,1.753274866E1,8.175971612E-2,3.857520432E0,1.795228187E1
4.214950417E-1,1.588601018E1,-1.223576799E0,3.706741791E0,1.635855722E1
4.314340417E-1,1.538786366E1,-2.372602037E0,3.397077928E0,1.593598842E1
4.413720417E-1,1.536386552E1,-3.926202412E0,2.796204014E0,1.610224165E1
4.513100417E-1,1.521231271E1,-5.503344408E0,2.147743120E0,1.631913166E1
4.612480417E-1,1.500132178E1,-6.840913700E0,1.070609325E0,1.652222623E1
4.711860417E-1,1.501446164E1,-7.696820356E0,-2.215720510E-1,1.687377243E1
4.811240417E-1,1.511409820E1,-8.208331858E0,-1.249495606E0,1.724453291E1
4.910620417E-1,1.469842431E1,-8.724059787E0,-2.079274564E0,1.721848655E1
5.010000417E-1,1.347658311E1,-9.202452074E0,-2.788573397E0,1.655534833E1
5.109390417E-1,1.160209441E1,-9.777580113E0,-3.110649145E0,1.548824734E1
5.208770417E-1,9.623762673E0,-1.037476151E1,-3.126955860E0,1.449242345E1
5.308150417E-1,7.882678784E0,-1.073166620E1,-3.035865596E0,1.365729710E1
5.407530417E-1,6.301554834E0,-1.082003283E1,-2.841697690E0,1.283970208E1
5.506910417E-1,5.055203860E0,-1.070721080E1,-2.707202375E0,1.214612671E1
5.606290417E-1,4.248592740E0,-1.053373093E1,-2.606785802E0,1.165355567E1
5.705670417E-1,3.536711192E0,-1.025695649E1,-2.459268737E0,1.112481394E1
5.805050417E-1,2.844497922E0,-9.914634755E0,-2.313875381E0,1.057095880E1
5.904440417E-1,2.202031594E0,-9.528586375E0,-2.410899400E0,1.007250403E1
6.003820417E-1,1.470923231E0,-9.126305539E0,-2.538203809E0,9.586216486E0
6.103200417E-1,5.745199281E-1,-8.787961083E0,-2.694985203E0,9.209846817E0
6.202580417E-1,-4.843073308E-1,-8.507166678E0,-2.772449116E0,8.960631260E0
6.301960417E-1,-1.536389242E0,-8.141916259E0,-2.698609307E0,8.713999338E0
6.401340417E-1,-2.411784668E0,-7.645318081E0,-2.563634520E0,8.416639222E0
6.500720417E-1,-3.109069228E0,-7.168466535E0,-2.422197390E0,8.180480677E0
6.600110417E-1,-3.645793338E0,-6.795592516E0,-2.163619480E0,8.009565279E0
6.699490417E-1,-3.727866027E0,-6.424242282E0,-1.833455279E0,7.650453076E0
6.798870417E-1,-3.292095264E0,-5.977599791E0,-1.557327536E0,6.999632814E0
6.898250417E-1,-2.540504104E0,-5.407819616E0,-1.377468352E0,6.131565311E0
6.997630417E-1,-1.901936699E0,-4.796526548E0,-1.194326541E0,5.296267178E0
7.097010417E-1,-1.708118457E0,-4.242820369E0,-8.651704001E-1,4.654859092E0
7.196390417E-1,-1.861751125E0,-3.863933074E0,-5.108911121E-1,4.319387199E0
7.295770417E-1,-2.179322762E0,-3.508161576E0,-3.637646413E-1,4.145958280E0
7.395160417E-1,-2.632329363E0,-3.143149724E0,-3.912266743E-1,4.118447083E0
7.494540417E-1,-3.135317379E0,-2.802783301E0,-5.574676931E-1,4.242237561E0
7.593920417E-1,-3.600569218E0,-2.390601960E0,-7.721259964E-1,4.390359323E0
7.693300417E-1,-3.935443352E0,-1.964082661E0,-1.047039857E0,4.521241814E0
7.792680417E-1,-4.278743908E0,-1.519945117E0,-1.414033331E0,4.755772582E0
7.892060417E-1,-4.900987641E0,-1.266925571E0,-1.752200031E0,5.356770035E0
7.991440417E-1,-5.621031318E0,-1.197551866E0,-1.994798670E0,6.083530659E0
8.090830417E-1,-6.413958199E0,-1.313322058E0,-2.116826552E0,6.880743365E0
8.190210417E-1,-7.240742213E0,-1.522633082E0,-2.192864914E0,7.717215549E0
8.289590417E-1,-8.022123182E0,-1.798625754E0,-2.250548866E0,8.523760036E0
8.388970417E-1,-8.756199008E0,-2.112589075E0,-2.103144214E0,9.249717252E0
8.488350417E-1,-9.338458310E0,-2.388966494E0,-1.996579732E0,9.843794753E0
8.587730417E-1,-9.700674609E0,-2.687405457E0,-2.002082985E0,1.026321452E1
8.687110417E-1,-9.836124190E0,-3.004781213E0,-1.848587873E0,1.044965676E1
8.786490417E-1,-9.821998487E0,-3.215592048E0,-1.468712983E0,1.043881240E1
8.885880417E-1,-9.721428716E0,-3.380408685E0,-1.019969660E0,1.034280800E1
8.985260417E-1,-9.602253106E0,-3.563245271E0,-5.626682798E-1,1.025751321E1
9.084640417E-1,-9.437173344E0,-3.729990905E0,-1.645282231E-2,1.014757821E1
9.184020417E-1,-9.183612345E0,-3.773298308E0,5.196234536E-1,9.942158939E0
9.283400417E-1,-8.764714893E0,-3.807250165E0,1.013840536E0,9.609539718E0
9.382780417E-1,-8.225376492E0,-3.748944070E0,1.419481766E0,9.150209208E0
9.482160417E-1,-7.655713261E0,-3.587314750E0,1.717957567E0,8.627291049E0
9.581550417E-1,-7.005403478E0,-3.435591783E0,1.841451931E0,8.016851876E0
9.680934167E-1,-6.164141173E0,-3.243038878E0,1.864597549E0,7.210455019E0
9.780314167E-1,-5.456873662E0,-2.905120685E0,1.939847122E0,6.479213163E0
9.879694167E-1,-4.839749751E0,-2.639923727E0,1.969575536E0,5.854195310E0
9.979074167E-1,-4.049797348E0,-2.474475591E0,1.942157941E0,5.127949442E0
1.007845417E0,-3.073809348E0,-2.214440555E0,2.003988739E0,4.285793012E0
1.017783417E0,-2.243739783E0,-1.885201968E0,2.150380799E0,3.634899209E0
1.027722417E0,-1.297525220E0,-1.652768714E0,2.293154603E0,3.110269144E0
1.037660417E0,-4.903071588E-1,-1.390595351E0,2.545104108E0,2.941379177E0
1.047598417E0,5.086609840E-2,-1.362112979E0,2.825359985E0,3.136972772E0
1.057536417E0,3.711888510E-1,-1.631852054E0,3.095604844E0,3.519018562E0
1.067474417E0,5.338484502E-1,-1.983388413E0,3.232726729E0,3.830058207E0
1.077412417E0,1.423282456E-1,-2.163280342E0,3.229476262E0,3.889673006E0
1.087350417E0,-3.757777458E-1,-1.895784259E0,3.116163070E0,3.666835031E0
1.097288417E0,-1.590705782E-1,-9.331711793E-1,3.160010755E0,3.298754291E0
1.107227417E0,2.229818147E-1,4.997048038E-1,3.422372983E0,3.465842266E0
1.117165417E0,4.218555593E-1,1.993490063E0,3.642090881E0,4.173342873E0
1.127103417E0,1.301672650E0,3.025242959E0,4.084837373E0,5.247127120E0
1.137041417E0,2.753508815E0,3.727792937E0,4.994661790E0,6.813581831E0
1.146979417E0,4.425654616E0,4.426998307E0,5.978961022E0,8.656368043E0
1.156917417E0,6.013252603E0,4.971309180E0,6.514539079E0,1.016426787E1
1.166855417E0,6.850277431E0,5.252931551E0,6.643180162E0,1.089272388E1
1.176794417E0,7.443495001E0,5.374303375E0,6.720659863E0,1.137787430E1
1.186732417E0,8.300164719E0,5.778716106E0,6.635583460E0,1.209616725E1
1.196670417E0,5.992265777E0,5.016007635E0,6.462333968E0,1.014048037E1
1.206608417E0,4.996155753E0,3.880859594E0,5.944891636E0,8.681266040E0
1.216546417E0,5.104308777E0,3.539451782E0,5.471295819E0,8.277485424E0
1.226484417E0,5.368409382E0,3.104551084E0,4.822672373E0,7.855967512E0
1.236422417E0,5.071017070E0,2.209639406E0,3.882240706E0,6.757922265E0
1.246361417E0,4.149135695E0,1.205175465E0,2.895831213E0,5.201308810E0
1.256299417E0,3.158494280E0,2.446749848E-1,2.061352117E0,3.779566710E0
1.266237417E0,2.349500712E0,-6.161263758E-1,1.223453861E0,2.719669953E0
1.276175417E0,1.765006603E0,-1.395560807E0,2.002028167E-1,2.258964241E0
1.286113417E0,1.084238089E0,-1.983271469E0,-8.685448283E-1,2.421426867E0
1.296051417E0,4.202677479E-1,-2.473513724E0,-1.816436373E0,3.097472553E0
1.305989417E0,-1.618214008E-1,-2.929203612E0,-2.745493451E0,4.017978877E0
1.315927417E0,-6.077172026E-1,-3.295739248E0,-3.475594924E0,4.828144309E0
1.325866417E0,-9.274730676E-1,-3.503921176E0,-3.849129678E0,5.287104044E0
1.335804417E0,-1.336986909E0,-3.759606467E0,-4.241576666E0,5.823499584E0
1.345742417E0,-1.623142334E0,-4.115585541E0,-4.210879954E0,6.107711958E0
1.355680417E0,-2.065006773E0,-4.421708915E0,-3.862998689E0,6.224027761E0
1.365618417E0,-2.649942931E0,-4.860988593E0,-3.475535282E0,6.536876405E0
1.375556417E0,-3.367275546E0,-5.400145730E0,-3.065778782E0,7.063930779E0
1.385494417E0,-3.980946384E0,-5.792069977E0,-2.600732764E0,7.493985564E0
1.395433417E0,-4.522009129E0,-6.035123529E0,-2.135101440E0,7.837725482E0
1.405371417E0,-4.813839277E0,-6.289209607E0,-1.817358917E0,8.125884537E0
1.415309417E0,-4.789210220E0,-6.438006628E0,-1.754439076E0,8.213557106E0
1.425247417E0,-4.307495544E0,-6.366793973E0,-1.871548135E0,7.911591229E0
1.435185417E0,-3.627068215E0,-6.240342672E0,-2.061796213E0,7.506564069E0
1.445123417E0,-3.196154149E0,-6.352947181E0,-2.117505706E0,7.420186632E0
1.455061417E0,-2.936369082E0,-6.609348173E0,-2.116349127E0,7.535561046E0
1.465000417E0,-2.378152361E0,-6.604931186E0,-2.213802185E0,7.360818211E0
1.474938417E0,-1.575208907E0,-6.308471505E0,-2.478503153E0,6.958525254E0
1.484876417E0,-4.119328344E-1,-5.736874015E0,-2.844932955E0,6.416779227E0
1.494814417E0,-2.454544187E-2,-4.946861971E0,-3.346123536E0,5.972318525E0
1.504752417E0,-3.570888752E-1,-4.295781525E0,-4.139019427E0,5.976013152E0
1.514690417E0,-1.715058517E-1,-3.937173543E0,-5.205573197E0,6.529069005E0
1.524628417E0,8.863776666E-1,-3.710247781E0,-5.460391932E0,6.660892133E0
1.534566417E0,3.893489580E0,-2.705158188E0,-4.899189037E0,6.817565192E0
1.544505417E0,8.849020633E0,-1.118250173E0,-3.877238413E0,9.725668477E0
1.554443417E0,1.373527797E1,5.760828888E-1,-1.796050640E0,1.386418156E1
1.564381417E0,1.699394996E1,2.174432151E0,1.878558946E0,1.723518129E1
1.574319417E0,1.757476091E1,3.866920124E0,7.458153970E0,1.947945977E1
1.584257417E0,1.690816780E1,4.432044454E0,8.900435784E0,1.961496657E1
1.594195417E0,1.605803059E1,4.615513709E0,8.326376032E0,1.866793644E1
1.604133417E0,1.490613846E1,4.841267396E0,8.081763028E0,1.763365327E1
1.614072417E0,1.399858394E1,4.818049564E0,8.490309155E0,1.706632073E1
1.624010417E0,1.271301861E1,4.594587108E0,8.192840829E0,1.580676165E1
1.633948417E0,1.107729745E1,4.336542465E0,6.908136215E0,1.375625187E1
1.643886417E0,9.309360811E0,4.084416958E0,5.609833900E0,1.161106787E1
1.653824417E0,7.434751659E0,3.780980087E0,4.611580871E0,9.530898215E0
1.663762417E0,5.675316868E0,3.462362675E0,3.681851948E0,7.599553316E0
1.673700417E0,4.167397719E0,3.141571853E0,2.766273871E0,5.906686769E0
1.683638417E0,3.082224076E0,2.819793728E0,2.007566650E0,4.634831796E0
1.693577417E0,2.627106630E0,2.422285536E0,1.613374853E0,3.920731422E0
1.703515417E0,2.591627480E0,2.112668012E0,1.764259329E0,3.780543625E0
1.713453417E0,2.750932531E0,2.166671434E0,2.357110863E0,4.221145166E0
1.723391417E0,3.117767546E0,2.379582297E0,2.999529828E0,4.937617398E0
1.733329417E0,3.502914285E0,2.660999723E0,3.628349925E0,5.702302271E0
1.743267417E0,3.730770923E0,2.733123959E0,4.229187586E0,6.266948691E0
1.753205417E0,3.687761729E0,2.622051420E0,4.557650247E0,6.422376195E0
1.763144417E0,3.414019065E0,2.482787700E0,4.817209904E0,6.405097361E0
1.773082417E0,3.011773898E0,2.285850261E0,5.294519287E0,6.505984008E0
1.783020417E0,2.655739861E0,2.081435110E0,5.639737730E0,6.572059646E0
1.792958417E0,2.751358209E0,2.098347012E0,6.138318114E0,7.046416213E0
1.802896417E0,3.500673632E0,2.396555010E0,6.813818872E0,8.026600738E0
1.812834417E0,4.259144041E0,2.640768942E0,7.403551501E0,8.940164618E0
1.822772417E0,4.762592232E0,2.721388597E0,7.411427116E0,9.220493076E0
1.832711417E0,5.057705884E0,2.722237321E0,6.865827516E0,8.951567032E0
1.842649417E0,5.094724606E0,2.802321078E0,6.414567479E0,8.657707444E0
1.852587417E0,5.049291156E0,2.822498943E0,6.314755508E0,8.563759605E0
1.862525417E0,4.885647470E0,2.703666271E0,6.300819839E0,8.419007848E0
1.872463417E0,4.579118299E0,2.583707719E0,6.234703032E0,8.155696897E0
1.882401417E0,4.041061023E0,2.428337843E0,5.838747130E0,7.504529760E0
1.892339417E0,3.273372479E0,2.074875119E0,4.841735466E0,6.201812353E0
1.902278417E0,2.326274402E0,1.715036298E0,3.556485305E0,4.582738245E0
1.912216417E0,1.371098396E0,1.548230146E0,2.119832606E0,2.961522864E0
1.922154417E0,3.472684765E-1,1.180475072E0,5.205694234E-1,1.336079831E0
1.932092417E0,-7.364299142E-1,7.653125283E-1,-8.165051937E-1,1.339668995E0
1.942030417E0,-1.675925442E0,3.737437919E-1,-1.719356806E0,2.429937928E0
1.951968417E0,-2.562184995E0,1.564371385E-1,-2.247565032E0,3.411863581E0
1.961906417E0,-3.438791379E0,-4.618284412E-2,-2.656838552E0,4.345826745E0
1.971843292E0,-4.353085992E0,-2.983207034E-1,-3.139468902E0,5.375371418E0
1.981782292E0,-5.326105946E0,-3.398489445E-1,-3.651606640E0,6.466616806E0
1.991720292E0,-6.109563847E0,-3.614177151E-1,-4.435342868E0,7.558416469E0
2.001658292E0,-6.571500900E0,-4.889757478E-1,-5.395444568E0,8.516721403E0
2.011596292E0,-6.817533608E0,-5.013987422E-1,-6.338149048E0,9.322140235E0
2.021534292E0,-7.000223429E0,-5.306267074E-1,-7.029570605E0,9.934765002E0
2.031472292E0,-7.149355495E0,-8.028411278E-1,-7.676002514E0,1.052040173E1
2.041410292E0,-7.615909510E0,-7.920293337E-1,-7.988809841E0,1.106573408E1
2.051349292E0,-8.270894727E0,-9.351703423E-1,-7.832762858E0,1.142954142E1
2.061287292E0,-8.910773662E0,-1.293473099E0,-7.631829139E0,1.180337985E1
2.071225292E0,-9.670102442E0,-1.762245840E0,-7.549487479E0,1.239399664E1
2.081163292E0,-1.045155182E1,-2.290513269E0,-7.640114059E0,1.314734686E1
2.091101292E0,-1.109764343E1,-2.567657989E0,-8.005426458E0,1.392255041E1
2.101039292E0,-1.155414725E1,-2.631507537E0,-8.528892592E0,1.460017669E1
2.110977292E0,-1.175007341E1,-2.709231359E0,-8.970185466E0,1.502891836E1
2.120915292E0,-1.170699580E1,-2.665860221E0,-9.435112785E0,1.527029517E1
2.130854292E0,-1.132225018E1,-2.543441160E0,-9.919651666E0,1.526636601E1
2.140792292E0,-1.063729448E1,-2.399107027E0,-9.976368488E0,1.477956956E1
2.150730292E0,-1.009298185E1,-2.309065754E0,-9.376556429E0,1.396853169E1
2.160668292E0,-9.730704739E0,-2.326232009E0,-8.568440820E0,1.317255283E1
2.170606292E0,-9.431254792E0,-2.284757270E0,-7.966112704E0,1.255498444E1
2.180544292E0,-9.153436035E0,-2.174333333E0,-7.569712998E0,1.207533319E1
2.190482292E0,-8.948954226E0,-2.072579210E0,-7.105342918E0,1.161315049E1
2.200421292E0,-8.987016676E0,-2.024635257E0,-6.533212747E0,1.129373656E1
2.210359292E0,-8.916662977E0,-1.949843522E0,-6.084402108E0,1.096944472E1
2.220297292E0,-8.311358628E0,-1.897523221E0,-5.708320892E0,1.025983450E1
2.230235292E0,-7.279909202E0,-1.679617666E0,-5.509685129E0,9.283039573E0
2.240173292E0,-6.076603677E0,-1.027170141E0,-5.048843844E0,7.966869831E0
2.250111292E0,-5.050859964E0,-3.255568877E-1,-4.175374491E0,6.561320431E0
2.260049292E0,-4.428423858E0,-2.090584248E-2,-3.277953188E0,5.509659882E0
2.269988292E0,-4.156897289E0,-2.662588120E-2,-2.575386254E0,4.890104126E0
2.279926292E0,-3.829624536E0,5.116810709E-2,-2.426093974E0,4.533715279E0
2.289864292E0,-3.620381339E0,-4.127107333E-2,-1.610859088E0,3.962793376E0
2.299802292E0,-3.204519761E0,-1.583347061E-1,-1.961857796E-1,3.214421509E0
2.309740292E0,-2.260393238E0,-7.536938184E-1,1.067476460E0,2.610926647E0
2.319678292E0,-7.550111961E-1,-1.115052915E0,1.883579950E0,2.315439125E0
2.329616292E0,1.158866687E0,-1.586958594E0,2.102107941E0,2.877545373E0
2.339554292E0,2.467586401E0,-1.886732623E0,2.207018977E0,3.810469184E0
2.349493292E0,3.216417090E0,-1.849911829E0,2.371210546E0,4.403425045E0
2.359431292E0,3.640867059E0,-1.587873391E0,3.497291018E0,5.292286775E0
2.369369292E0,3.830898060E0,-1.739261166E0,4.846968431E0,6.418248384E0
2.379307292E0,4.238977579E0,-2.368141343E0,5.725490656E0,7.507214369E0
2.389245292E0,4.819454650E0,-2.813777820E0,6.221105332E0,8.357430245E0
2.399183292E0,5.236688570E0,-2.901245735E0,6.456399629E0,8.804841291E0
2.409121292E0,5.279955043E0,-2.785647158E0,6.419354594E0,8.766177545E0
2.419060292E0,5.034138681E0,-2.448381367E0,6.406070305E0,8.507341555E0
2.428998292E0,4.913862040E0,-2.164628710E0,6.729666914E0,8.609301619E0
2.438936292E0,4.819941723E0,-1.819037361E0,7.274084791E0,8.913643738E0
2.448874292E0,4.647455294E0,-1.468667960E0,7.655348395E0,9.075251254E0
2.458812292E0,4.592665129E0,-1.126016737E0,7.615382676E0,8.964069387E0
2.468750292E0,4.486300183E0,-8.137897468E-1,7.340668205E0,8.641443906E0
2.478688292E0,4.182264850E0,-4.414940178E-1,7.091198503E0,8.244474056E0
2.488626292E0,3.979547730E0,-7.265998676E-2,6.653763038E0,7.753363281E0
2.498565292E0,4.043500482E0,2.363660914E-1,5.995900991E0,7.235785636E0
2.508503292E0,4.075483582E0,6.248121223E-1,5.200874375E0,6.636945900E0
2.518441292E0,3.945053836E0,9.239419341E-1,4.369789733E0,5.959209744E0
2.528379292E0,3.832847521E0,1.082834903E0,3.548075840E0,5.334050404E0
2.538317292E0,3.718414587E0,1.175250731E0,2.708573547E0,4.748072449E0
2.548255292E0,3.632518405E0,1.177656714E0,1.804407481E0,4.223499930E0
2.558193292E0,3.737257240E0,1.094940686E0,9.368151641E-1,4.005447470E0
2.568132292E0,3.910880953E0,1.061298585E0,3.238655806E-1,4.065247032E0
2.578070292E0,4.119759868E0,1.088388735E0,-3.250934958E-2,4.261228493E0
2.588008292E0,4.232913432E0,1.133696470E0,-4.203428847E-1,4.402216708E0
2.597946292E0,4.223936201E0,1.128703240E0,-8.154731601E-1,4.447539152E0
2.607884292E0,4.190405343E0,1.083219796E0,-1.098346835E0,4.465336251E0
2.617822292E0,3.895626737E0,9.980992466E-1,-1.238185337E0,4.207756256E0
2.627760292E0,3.451461711E0,8.108485973E-1,-1.369079937E0,3.800584595E0
2.637699292E0,3.039157578E0,4.636894272E-1,-1.384061088E0,3.371514758E0
2.647637292E0,2.725732201E0,1.185490814E-1,-1.320849763E0,3.031223188E0
2.657575292E0,2.479258028E0,-2.764833994E-2,-1.301588450E0,2.800288788E0
2.667513292E0,2.147889885E0,-1.383916808E-1,-1.295756437E0,2.512283416E0
2.677451292E0,1.863970143E0,-3.901176037E-1,-1.106029200E0,2.202243635E0
2.687389292E0,1.550744156E0,-7.260677710E-1,-8.536572325E-1,1.913298857E0
2.697327292E0,1.188506808E0,-9.182144402E-1,-8.578979257E-1,1.729640148E0
2.707265292E0,9.641924125E-1,-9.682802010E-1,-9.662532637E-1,1.673582662E0
2.717204292E0,8.796013284E-1,-9.857293157E-1,-1.109946542E0,1.725497640E0
2.727142292E0,8.136751413E-1,-1.060289648E0,-1.164415694E0,1.772609738E0
2.737080292E0,7.546510077E-1,-1.083211902E0,-1.158535734E0,1.756431387E0
