"Time (s)","Linear Acceleration x (m/s^2)","Linear Acceleration y (m/s^2)","Linear Acceleration z (m/s^2)","Absolute acceleration (m/s^2)"
5.880999997E-3,-3.291525452E0,-4.213303040E0,-3.995715866E0,6.674714046E0
1.582000000E-2,-3.707879074E0,-1.892560104E0,-3.302495706E0,5.313814907E0
2.575900000E-2,-3.664512907E0,3.857583582E-2,-2.463829857E0,4.415948427E0
3.569900000E-2,-3.301489985E0,2.093741745E0,-1.432679955E0,4.163671753E0
4.563800000E-2,-2.889283501E0,3.890342023E0,-2.353479449E-1,4.851608894E0
5.557700000E-2,-2.429905628E0,5.459624777E0,3.777720849E-1,5.987875735E0
6.551600000E-2,-1.948331578E0,6.708798786E0,7.486378773E-1,7.025982903E0
7.545600000E-2,-1.338251077E0,7.881187159E0,1.047579263E0,8.062347629E0
8.539500000E-2,-8.030889036E-1,9.028792693E0,1.124260672E0,9.133893548E0
9.533400000E-2,-2.299360545E-1,1.004879795E1,1.336594122E0,1.013990605E1
1.052730000E-1,5.442003608E-1,1.092596099E1,1.669068997E0,1.106609998E1
1.152130000E-1,1.069974976E0,1.189584216E1,1.807037559E0,1.207978857E1
1.251520000E-1,1.535855537E0,1.270544764E1,2.110910632E0,1.297085948E1
1.350910000E-1,1.905078554E0,1.320876193E1,2.557326836E0,1.358825362E1
1.450300000E-1,2.008921304E0,1.337821891E1,3.040330237E0,1.386564510E1
1.549690000E-1,2.055578576E0,1.357423746E1,3.613618157E0,1.419660389E1
1.649090000E-1,2.233134250E0,1.364353983E1,4.119553169E0,1.442580279E1
1.748480000E-1,2.167411838E0,1.358738902E1,4.430839050E0,1.445500429E1
1.847870000E-1,1.831013628E0,1.347379399E1,4.723020323E0,1.439453564E1
1.947260000E-1,9.481879985E-1,1.300817319E1,5.080685441E0,1.399732099E1
2.046660000E-1,-6.663698919E-2,1.192068113E1,5.257267261E0,1.302865834E1
2.146050000E-1,-4.969162667E-1,1.071649852E1,5.347594464E0,1.198695261E1
2.245440000E-1,-8.189991774E-1,9.816815515E0,5.576439866E0,1.131977509E1
2.344830000E-1,-1.205956873E0,9.080733510E0,5.798380877E0,1.084136863E1
2.444230000E-1,-1.590546299E0,8.500669836E0,6.051696292E0,1.055529503E1
2.543620000E-1,-1.957565647E0,8.068888044E0,6.273447853E0,1.040649631E1
2.643010000E-1,-2.190763132E0,7.745762136E0,6.404696209E0,1.028671025E1
2.742400000E-1,-2.235532339E0,7.541249337E0,6.564378991E0,1.024495573E1
2.841790000E-1,-1.910595402E0,7.539596913E0,6.527790624E0,1.015420833E1
2.941190000E-1,-1.101860354E0,7.813667606E0,6.493087399E0,1.021898633E1
3.040580000E-1,-5.932473904E-1,8.133705599E0,6.424768531E0,1.038204026E1
3.139970000E-1,-2.698371617E-1,8.339963207E0,6.265391559E0,1.043469836E1
3.239360000E-1,7.091707796E-2,8.488659071E0,6.257285564E0,1.054589895E1
3.338760000E-1,2.565378159E-1,8.501122996E0,6.245855427E0,1.055204311E1
3.438150000E-1,2.422309218E-1,8.289121667E0,6.217822121E0,1.036482155E1
3.537540000E-1,-2.299573968E-1,7.824244634E0,6.336649237E0,1.007098843E1
3.636930000E-1,-9.342407812E-1,7.259097793E0,6.599053565E0,9.854684904E0
3.736330000E-1,-1.459271923E0,6.804311299E0,6.791448010E0,9.723779762E0
3.835720000E-1,-2.150347909E0,6.130173528E0,6.852317525E0,9.442313226E0
3.935110000E-1,-3.071746450E0,5.214359808E0,6.702879065E0,9.030712166E0
4.034500000E-1,-4.171116841E0,3.989837660E0,6.387296065E0,8.608982012E0
4.133890000E-1,-5.515131810E0,2.327279538E0,5.838067684E0,8.361575402E0
4.233290000E-1,-6.917331546E0,5.213260531E-2,4.774131128E0,8.405029539E0
4.332680000E-1,-8.204422410E0,-2.665999970E0,2.969891462E0,9.123615413E0
4.432070000E-1,-8.883787007E0,-6.262748033E0,4.754192707E-1,1.087978437E1
4.531460000E-1,-8.812870806E0,-1.157144565E1,-3.239424422E0,1.490164141E1
4.630860000E-1,-6.665236444E0,-2.461234805E1,-2.208107903E1,3.373080350E1
4.730250000E-1,-3.394926445E0,-4.554310668E1,-5.222941182E1,6.938019567E1
4.829640000E-1,-4.690217151E0,-3.800508443E1,-2.596473652E1,4.626610122E1
4.929030000E-1,-1.078730012E0,-1.953076681E1,3.217222252E0,1.982334557E1
5.028420000E-1,-4.932884202E0,-9.263110505E0,2.024270976E0,1.068813528E1
5.127820000E-1,-6.632549340E0,-2.637878956E0,-2.037931826E0,7.423091152E0
5.227210000E-1,-5.595764914E0,9.446293831E-2,-2.949210445E0,6.326084924E0
5.326600000E-1,-3.157717769E0,1.190449253E0,-1.336495158E0,3.629679083E0
5.425990000E-1,-9.410371462E-1,1.520652046E0,-1.252866526E0,2.183485307E0
5.525390000E-1,-6.237189853E-1,2.570121421E0,1.538572007E-1,2.649192618E0
5.624780000E-1,-1.405214560E-1,2.209158765E0,2.193319827E-1,2.224462912E0
5.724170000E-1,2.721656692E-1,7.001391703E-1,-2.139920130E0,2.267934561E0
5.823560000E-1,1.521197006E-1,-3.968037486E-2,-2.264869866E0,2.270319459E0
5.922960000E-1,-3.373896056E-1,-5.640621829E-1,-1.835497127E0,1.949627553E0
6.022348750E-1,-7.754244107E-1,-8.589314210E-1,-2.222171159E0,2.505412314E0
6.121738750E-1,-1.044310961E0,-6.797353113E-1,-2.514521416E0,2.806322047E0
6.221128750E-1,-1.096515487E0,-3.325732541E-1,-2.069172329E0,2.365253752E0
6.320518750E-1,-7.999148887E-1,6.649453640E-3,-1.427315281E0,1.636195879E0
6.419918750E-1,-2.725562632E-1,8.158924055E-1,6.173379189E-1,1.058807556E0
6.519308750E-1,-3.517509520E-2,9.894050217E-1,1.291129535E0,1.627014155E0
6.618698750E-1,1.498723233E-1,8.207181126E-1,-8.477819502E-2,8.385864749E-1
6.718088750E-1,6.256503206E-1,3.501897454E-1,-1.042912892E0,1.265598073E0
6.817488750E-1,1.314644113E0,2.933887231E-1,-3.406891894E-1,1.389401026E0
6.916878750E-1,1.549078869E0,-3.921844482E-2,5.044100583E-2,1.550395990E0
7.016268750E-1,1.202317931E0,-8.759093964E-1,-6.759281892E-1,1.633910828E0
7.115658750E-1,9.502865642E-1,-1.372376597E0,-1.096313174E0,1.997089045E0
7.215048750E-1,1.126408793E0,-1.476509076E0,-1.083059290E0,2.149858890E0
7.314448750E-1,1.448474600E0,-1.609440261E0,-1.279440951E0,2.515024010E0
7.413838750E-1,1.835080805E0,-1.521077138E0,-1.338594893E0,2.733684969E0
7.513228750E-1,2.307217741E0,-9.576990795E-1,-1.432914575E0,2.879875937E0
7.612618750E-1,2.660787177E0,1.420247751E-1,-8.422656870E-1,2.794525170E0
7.712018750E-1,2.625141966E0,1.164539655E0,1.639145871E0,3.306708656E0
7.811408750E-1,2.163784372E0,7.163149077E-1,9.714125544E-1,2.477642469E0
7.910798750E-1,1.977097979E0,3.683283931E-1,-6.657850242E-1,2.118455079E0
8.010188750E-1,1.678605221E0,-2.604174435E-2,-1.029746132E0,1.969459509E0
8.109588750E-1,1.817511676E0,-8.164847285E-1,-1.622326940E0,2.569424197E0
8.208978750E-1,2.051733009E0,-1.175799639E0,-2.085041673E0,3.152699146E0
8.308368750E-1,2.179169565E0,-1.321604639E0,-1.984630947E0,3.230197952E0
8.407758750E-1,2.207992830E0,-1.297914060E0,-1.601480739E0,3.020687637E0
8.507148750E-1,2.209120758E0,-1.287621791E0,-1.216559409E0,2.831642844E0
8.606548750E-1,2.365509219E0,-1.320819358E0,-8.930490473E-1,2.852671422E0
8.705938750E-1,2.438835642E0,-1.489174730E0,-7.546983701E-1,2.955525383E0
8.805328750E-1,2.250141315E0,-1.599024031E0,-7.079492962E-1,2.849772973E0
8.904718750E-1,2.070087419E0,-1.789786518E0,-6.356677705E-1,2.809389830E0
9.004118750E-1,2.054226261E0,-2.184456618E0,-1.014647452E0,3.165628800E0
9.103508750E-1,2.031189986E0,-2.602027338E0,-1.177140113E0,3.504559583E0
9.202898750E-1,1.729019330E0,-2.866610337E0,-1.309326363E0,3.594620730E0
9.302288750E-1,1.124945235E0,-2.970981383E0,-1.385467343E0,3.465797443E0
9.401678750E-1,6.440222722E-1,-3.295072666E0,-1.277959852E0,3.592415614E0
9.501078750E-1,2.182882547E-1,-3.626246096E0,-1.240171928E0,3.838663430E0
9.600468750E-1,-3.057748801E-1,-3.734920108E0,-1.192566237E0,3.932599740E0
9.699858750E-1,-6.805036354E-1,-3.580132615E0,-1.027208440E0,3.786237171E0
9.799248750E-1,-1.038546191E0,-3.125022771E0,-7.464561349E-1,3.376616986E0
9.898648750E-1,-1.424088787E0,-2.547995557E0,-2.742887932E-1,2.931815917E0
9.998038750E-1,-1.637305167E0,-1.901819755E0,1.544422147E-1,2.514267088E0
1.009742875E0,-1.840173145E0,-1.268816561E0,5.293349844E-1,2.297025945E0
1.019681875E0,-1.928803486E0,-6.763953817E-1,7.371175468E-1,2.172817497E0
1.029620875E0,-2.017350504E0,-2.134298033E-1,4.757429141E-1,2.083647440E0
1.039560875E0,-2.112104633E0,7.323988438E-2,-5.036791563E-2,2.113974217E0
1.049499875E0,-2.285802606E0,1.524141079E-1,-8.384380996E-1,2.439488074E0
1.059438875E0,-2.330952759E0,-6.699388862E-2,-1.393073986E0,2.716336517E0
1.069377875E0,-2.483291730E0,-6.654739523E-1,-1.487027340E0,2.969990523E0
1.079317875E0,-2.521610873E0,-1.421152900E0,-1.386685903E0,3.209531859E0
1.089256875E0,-2.202529777E0,-2.414439304E0,-8.523579812E-1,3.377450029E0
1.099195875E0,-1.835240434E0,-3.688110223E0,-1.390631604E-1,4.121844615E0
1.109134875E0,-1.694007664E0,-4.966686956E0,2.980919310E-1,5.256091712E0
1.119073875E0,-1.637145831E0,-6.152676537E0,4.725544274E-1,6.384276210E0
1.129013875E0,-1.905452045E0,-7.503721907E0,4.471032518E-1,7.754772161E0
1.138952875E0,-2.784673305E0,-8.884909673E0,3.650866967E-1,9.318224810E0
1.148891875E0,-3.464549534E0,-1.024108247E1,2.486861748E-1,1.081409813E1
1.158830875E0,-4.182649596E0,-1.190592042E1,2.776755005E-2,1.261928166E1
1.168770875E0,-5.206441509E0,-1.370239790E1,-1.027548748E-1,1.465855723E1
1.178709875E0,-6.138461956E0,-1.545369279E1,4.754254103E-2,1.662827701E1
1.188648875E0,-6.463898098E0,-1.712491941E1,-1.914708772E-1,1.830523161E1
1.198587875E0,-7.162647386E0,-1.774065226E1,-1.066201767E0,1.916170782E1
1.208526875E0,-7.515232151E0,-1.785395844E1,-1.699145320E0,1.944555582E1
1.218466875E0,-7.725447155E0,-1.625814570E1,-1.889580363E0,1.809918090E1
1.228405875E0,-7.271299177E0,-1.305123911E1,-1.516743767E0,1.501689534E1
1.238344875E0,-6.596429919E0,-9.821779801E0,-7.347032315E-1,1.185411469E1
1.248283875E0,-5.486227269E0,-6.731191868E0,-1.186660257E-1,8.684567648E0
1.258223875E0,-4.265147670E0,-3.617412708E0,1.922120118E-1,5.595900714E0
1.268162875E0,-3.285315417E0,-7.798525071E-1,4.310427046E-1,3.404007217E0
1.278101875E0,-2.512057984E0,1.725306348E0,8.264279187E-1,3.157546582E0
1.288040875E0,-1.810143307E0,3.662568415E0,1.190760909E0,4.255459756E0
1.297979875E0,-8.880318439E-1,5.105762395E0,1.304840964E0,5.344157570E0
1.307919875E0,-5.834117889E-2,6.442120728E0,1.307961038E0,6.573818164E0
1.317858875E0,3.756958848E-1,7.923056731E0,1.347677081E0,8.045632907E0
1.327797875E0,5.564075929E-1,9.361945406E0,1.400660748E0,9.482481834E0
1.337736875E0,5.400985390E-1,1.066918051E1,1.341165183E0,1.076670067E1
1.347676875E0,4.285278171E-1,1.139504919E1,1.096897895E0,1.145573948E1
1.357615875E0,8.115935326E-4,1.170532701E1,4.354960902E-1,1.171342554E1
1.367554875E0,-1.152888201E0,1.211425320E1,-1.341373198E-1,1.216972780E1
1.377493875E0,-2.186841697E0,1.309922136E1,-5.347208548E-1,1.329126793E1
1.387433875E0,-2.292652327E0,1.466883272E1,-5.113285569E-1,1.485571826E1
1.397372875E0,-1.430041545E0,1.582213988E1,-6.227788261E-1,1.589883589E1
1.407311875E0,-3.468746665E-1,1.630390016E1,-1.228922178E0,1.635382928E1
1.417250875E0,2.312383756E-1,1.704753151E1,-1.772096937E0,1.714094890E1
1.427189875E0,5.090439767E-1,1.755231462E1,-2.236240729E0,1.770151538E1
1.437129875E0,7.476287940E-1,1.781319282E1,-2.500024999E0,1.800330282E1
1.447068875E0,1.055631463E0,1.752915730E1,-2.606246688E0,1.775325985E1
1.457007875E0,1.019574608E0,1.719571632E1,-2.643294647E0,1.742754139E1
1.466946875E0,1.063574613E0,1.646368118E1,-2.668438843E0,1.671240721E1
1.476886875E0,9.066058168E-1,1.545460027E1,-2.510595596E0,1.568342099E1
1.486825875E0,7.338195710E-1,1.441007472E1,-2.169349751E0,1.459091577E1
1.496764875E0,8.059707038E-1,1.319130448E1,-1.837501552E0,1.334303244E1
1.506703875E0,1.033576497E0,1.212767724E1,-1.465199976E0,1.225951249E1
1.516642875E0,1.312170449E0,1.129577165E1,-9.821193910E-1,1.141406181E1
1.526582875E0,1.594690221E0,1.064379424E1,-4.553752347E-1,1.077222165E1
1.536521875E0,1.902203478E0,1.014835498E1,9.548042692E-2,1.032553163E1
1.546460875E0,2.212602337E0,9.754616343E0,6.327038900E-1,1.002239808E1
1.556399875E0,2.451926534E0,9.468210949E0,1.120382725E0,9.844502007E0
1.566339875E0,2.612953445E0,9.238602485E0,1.553684721E0,9.725905500E0
1.576278875E0,2.707432171E0,9.041327369E0,2.010382669E0,9.649737200E0
1.586217875E0,2.650712425E0,8.812732812E0,2.518365376E0,9.541105813E0
1.596157208E0,2.419742875E0,8.602583297E0,3.023778816E0,9.434131295E0
1.606096208E0,2.056479340E0,8.438467156E0,3.486257614E0,9.358997135E0
1.616036208E0,1.717630123E0,8.317747296E0,3.933195097E0,9.359764794E0
1.625975208E0,1.461471937E0,8.168287202E0,4.461220890E0,9.421215838E0
1.635914208E0,9.729705450E-1,7.934377525E0,4.998620939E0,9.428002423E0
1.645853208E0,-2.089736402E-1,7.439503691E0,5.050171162E0,8.994115516E0
1.655793208E0,-3.911346099E0,5.863348705E0,4.433749794E0,8.326801522E0
1.665732208E0,-8.968025504E0,2.946720116E0,4.518671246E0,1.046551627E1
1.675671208E0,-1.333312636E1,-9.503982460E-1,2.674615842E0,1.363191421E1
1.685610208E0,-1.524773631E1,-4.808685833E0,3.222529185E-1,1.599127165E1
1.695549208E0,-1.488644855E1,-7.965655451E0,-2.003435007E0,1.700211072E1
1.705489208E0,-1.197050058E1,-1.007270254E1,-4.333733170E0,1.623371380E1
1.715428208E0,-8.220669483E0,-1.158572221E1,-5.496622449E0,1.523224292E1
1.725367208E0,-4.788968145E0,-1.849149673E1,-1.033279137E1,2.171718777E1
1.735306208E0,3.009328008E0,-3.911823290E1,-2.580957481E1,4.696196708E1
1.745246208E0,5.220217549E0,-4.738862360E1,-1.761690764E1,5.082605388E1
1.755185208E0,3.947160295E0,-3.098481674E1,-2.834266756E0,3.136354589E1
1.765124208E0,8.011958967E0,-1.795657357E1,-4.724940841E0,2.022263798E1
1.775063208E0,3.445236180E0,-8.260466217E0,-2.859005156E0,9.395683315E0
1.785002208E0,-1.213230005E-1,-2.516315342E0,1.024728636E0,2.719674787E0
1.794942208E0,-1.192613892E0,8.539975405E-2,-4.616663271E-1,1.281700749E0
1.804881208E0,-1.561296042E0,3.733540750E-1,-2.847548707E0,3.268879354E0
1.814820208E0,-2.317762610E0,2.167044194E0,-2.968067423E0,4.344827762E0
1.824759208E0,-3.317908382E0,2.782681158E0,-2.377659148E-1,4.336860972E0
1.834698208E0,-5.854274411E0,2.063959537E0,-3.032321014E0,6.908504077E0
1.844638208E0,-7.326674064E0,2.557513654E-1,-4.238326199E0,8.468114936E0
1.854577208E0,-4.547658525E0,4.870730639E-3,-2.051871588E0,4.989128060E0
1.864516208E0,-1.765668508E0,6.831723046E-1,-3.590283966E-1,1.926969400E0
1.874455208E0,-9.552771628E-2,1.049707357E0,-1.033771355E0,1.476378777E0
1.884395208E0,1.004579716E0,1.524373798E0,-1.120181508E0,2.141892269E0
1.894334208E0,1.579939304E0,1.415944785E0,-1.434944728E0,2.561283704E0
1.904273208E0,1.266502817E0,1.096816034E0,-1.184704948E0,2.051965061E0
1.914212208E0,1.502711034E0,9.187320650E-2,-3.166309376E0,3.506008585E0
1.924152208E0,1.000726401E0,-3.509083682E-1,-2.461154464E0,2.679901361E0
1.934091208E0,8.537782699E-1,-6.891990298E-1,-1.781170061E0,2.092008466E0
1.944030208E0,1.115038882E0,-1.541700268E-1,-1.052282470E0,1.540901847E0
1.953969208E0,1.256078401E0,1.460861342E0,1.872797685E0,2.686860618E0
1.963908208E0,1.670697446E0,9.711248714E-1,8.952379525E-1,2.129733426E0
1.973848208E0,2.057818791E0,5.954149532E-1,5.037516618E-1,2.200659646E0
1.983787208E0,2.332004673E0,6.127969712E-1,1.067229708E0,2.636805865E0
1.993726208E0,2.255416673E0,4.582989156E-2,7.696397603E-1,2.383558287E0
2.003665208E0,2.139578653E0,-5.563806957E-1,2.866223252E-1,2.229239478E0
2.013604208E0,2.210838085E0,-9.857493424E-1,4.867690086E-2,2.421131192E0
2.023544208E0,2.462503417E0,-4.637783414E-1,-1.173232126E-1,2.508541043E0
2.033483208E0,2.559125147E0,-3.764203548E-2,-8.563364267E-2,2.560834153E0
2.043422208E0,2.434326269E0,5.296285146E-1,7.213593006E-1,2.593609452E0
2.053361208E0,2.015896593E0,2.439271259E-1,1.765163308E0,2.690565187E0
2.063301208E0,2.207055522E0,-1.187647267E0,-3.484443516E-1,2.530417668E0
2.073240208E0,2.057111278E0,-1.886877780E0,-9.245810348E-1,2.940555161E0
2.083179208E0,2.131579662E0,-1.879280493E0,-5.935344887E-1,2.903034656E0
2.093118208E0,2.139447675E0,-2.116640611E0,2.458672321E-1,3.019578535E0
2.103057208E0,2.097474023E0,-2.904962225E0,1.108850481E0,3.750700227E0
2.112997208E0,1.712852363E0,-3.784232016E0,7.990421918E-1,4.229981512E0
2.122936208E0,1.675695646E0,-4.723048097E0,2.657851875E-2,5.011571176E0
2.132875208E0,1.543577224E0,-5.502492469E0,-7.556546822E-1,5.764639452E0
2.142814208E0,1.958827769E0,-5.912931340E0,-1.628167431E0,6.438221217E0
2.152754208E0,2.197984151E0,-5.567125252E0,-2.847883168E0,6.628307207E0
2.162693208E0,2.035415769E0,-4.667646899E0,-4.320487473E0,6.678057871E0
2.172632208E0,1.658508341E0,-3.749139367E0,-5.324342426E0,6.719770694E0
2.182571208E0,1.334905300E0,-3.067840510E0,-5.536031513E0,6.468482239E0
2.192510208E0,1.410073596E0,-2.488667952E0,-4.830059453E0,5.613488224E0
2.202450208E0,1.654238704E0,-1.756962004E0,-3.924105308E0,4.606736767E0
2.212389208E0,1.921272857E0,-1.229198751E0,-3.422821756E0,4.113140860E0
2.222328208E0,2.207999847E0,-9.700349504E-1,-3.081875582E0,3.913334669E0
2.232267208E0,2.415305277E0,-9.644052511E-1,-2.318409019E0,3.484077704E0
2.242206208E0,2.579040179E0,-1.018876743E0,-1.817151780E0,3.315357997E0
2.252146208E0,2.649471061E0,-1.261083033E0,-1.492743285E0,3.292158841E0
2.262085208E0,2.721896428E0,-1.556043488E0,-1.151472298E0,3.340041909E0
2.272024208E0,2.514720222E0,-1.951400635E0,-5.308646160E-1,3.227010919E0
2.281963208E0,2.539566795E0,-2.406558427E0,-1.889790863E-1,3.503803086E0
2.291903208E0,1.986352659E0,-2.855543312E0,4.141819659E-1,3.503037424E0
2.301842208E0,1.651064543E0,-3.499419404E0,6.828711730E-1,3.929155549E0
2.311781208E0,1.247471300E0,-4.154888771E0,9.074855304E-1,4.432021585E0
2.321720208E0,4.325208807E-1,-4.412804775E0,4.468146917E-1,4.456407035E0
2.331659208E0,-1.168870103E-1,-5.060027813E0,-3.667379504E-1,5.074646862E0
2.341599208E0,-8.114938375E-1,-5.857899685E0,-3.543786907E-1,5.924448938E0
2.351538208E0,-1.793974879E0,-6.094532994E0,-5.781887636E-1,6.379340133E0
2.361477208E0,-2.366314380E0,-6.366327950E0,-5.712706304E-1,6.815858379E0
2.371416208E0,-3.847583089E0,-6.539594983E0,-2.479893621E0,7.982485236E0
2.381356208E0,-5.032898487E0,-7.394154441E0,-3.206245566E0,9.501768136E0
2.391295208E0,-5.243926839E0,-8.195345777E0,-1.288450049E0,9.814405974E0
2.401234208E0,-4.647461725E0,-9.225531619E0,5.652661246E-1,1.034547534E1
2.411173208E0,-4.972021955E0,-1.063168349E1,9.335839927E-2,1.173722335E1
2.421112208E0,-6.126078722E0,-1.111680475E1,-3.013771892E-1,1.269657499E1
2.431052208E0,-6.592031643E0,-1.166865678E1,-5.882474363E-1,1.341485994E1
2.440991208E0,-7.649028139E0,-1.200951554E1,-1.023316534E0,1.427526783E1
2.450930208E0,-8.487893085E0,-1.224492444E1,-1.459058645E0,1.497034922E1
2.460869208E0,-8.344639226E0,-1.232906938E1,-1.323171985E0,1.494622828E1
2.470808208E0,-8.432712911E0,-1.216499417E1,-8.655159706E-1,1.482723333E1
2.480748208E0,-9.017792326E0,-1.089374283E1,-5.657467657E-1,1.415324276E1
2.490687208E0,-8.534751502E0,-8.305677474E0,-1.581601667E-1,1.191013334E1
2.500626208E0,-7.649683027E0,-5.378348479E0,2.675899306E-1,9.354992632E0
2.510565208E0,-6.126285714E0,-2.652665395E0,9.311872190E-1,6.740557839E0
2.520504208E0,-4.921528909E0,-4.899534023E-1,1.649567948E0,5.213691164E0
2.530444208E0,-4.232276670E0,1.372699948E0,1.917366039E0,4.844869811E0
2.540383208E0,-3.728589912E0,2.967654902E0,2.148923088E0,5.227545197E0
2.550322208E0,-3.074070718E0,4.629869792E0,2.272297584E0,6.004077064E0
2.560261208E0,-2.424189097E0,6.209758810E0,2.369845514E0,7.074882686E0
2.570201208E0,-1.528370370E0,7.035756959E0,2.696076293E0,7.688082944E0
2.580140208E0,-5.740667689E-1,8.077805632E0,2.510359368E0,8.478348934E0
2.590079208E0,3.810134889E-1,9.095292492E0,2.679330744E0,9.489379855E0
2.600018500E0,1.257033252E0,1.004940606E1,2.517412280E0,1.043590242E1
2.609957500E0,1.867653158E0,1.082468838E1,2.303739525E0,1.122360115E1
2.619897500E0,2.271493592E0,1.145505682E1,2.043755945E0,1.185558722E1
2.629836500E0,2.555594013E0,1.159122444E1,1.610435457E0,1.197835745E1
2.639775500E0,2.756896984E0,1.134291190E1,1.186402102E0,1.173327241E1
2.649714500E0,2.678731112E0,1.109266160E1,8.053814507E-1,1.143990301E1
2.659654500E0,2.651590092E0,1.089149984E1,5.601737845E-1,1.122361321E1
2.669593500E0,2.603852254E0,1.076366333E1,4.131502247E-1,1.108184046E1
2.679532500E0,2.397150549E0,1.111001847E1,1.650226052E-1,1.136688496E1
2.689471500E0,2.209010246E0,1.178707459E1,1.626976061E-1,1.199338668E1
2.699410500E0,2.519659950E0,1.209737931E1,9.247254610E-2,1.235733885E1
2.709350500E0,2.741225861E0,1.202503522E1,-2.515121341E-2,1.233354871E1
